Polling Station No.,AdhikaryPareshChandra,Gobinda Chandra Roy,NisithPramanik,Piya RoyChowdhury,Kan?sa Raj Barman,Dhananjoy Barman,Prabha t Roy,Subodh Barman,INaresh Chandr a Roy,Nirmal Kumar Roy,Harekrishna Sarkar,Total of Valid Votes,No of Rejected Votes,NOTA,Total,No of Tendered Votes,Unnamed: 18
1,257,9,466,6,1,1,2,0,2,11,6,761,0,10,771,0,
2,342,20,310,3,0,1,0,1,4,4,3,688,0,5,693,0,
3,182,5,479,8,1,0,1,0,3,4,3,686,0,13,699,0,
4,253,6,371,1,1,2,1,0,0,7,1,643,0,8,651,0,
5,205,9,307,3,0,1,0,0,0,3,4,532,0,2,534,0,
6,288,11,452,2,1,0,3,0,1,10,6,774,0,11,785,0,
7,262,17,469,7,0,0,0,2,4,5,3,769,0,4,773,0,
8,305,18,715,20,0,1,0,1,2,5,6,1073,0,3,1076,0,
9,249,10,265,1,0,1,0,1,0,0,3,530,0,3,533,0,
10,297,15,504,6,1,1,1,4,3,8,4,844,0,15,859,0,
11,451,13,372,5,0,3,1,1,1,4,2,853,0,6,859,0,
12,358,39,392,5,0,1,0,0,2,5,2,804,0,10,814,0,
13,245,125,198,9,0,0,1,1,1,5,6,591,0,6,597,0,
14,306,48,254,7,4,1,1,2,4,4,2,633,0,12,645,0,
15,323,9,293,6,1,0,0,0,0,3,3,638,0,4,642,0,
16,376,39,582,12,2,1,3,0,6,5,5,1031,0,4,1035,0,
17,333,8,538,9,1,5,2,3,4,20,9,932,0,14,946,0,
18,291,25,607,17,2,0,2,1,6,8,7,966,0,6,972,0,
19,476,29,656,16,0,2,1,1,3,2,11,1197,0,15,1212,0,
20,256,12,439,10,0,0,1,1,1,7,9,736,0,9,745,0,
21,281,7,350,3,0,1,0,3,2,8,7,662,0,10,672,0,
22,287,8,460,7,0,0,0,0,0,3,3,768,0,6,774,0,
23,297,26,218,10,0,0,0,0,1,3,1,556,0,6,562,0,
24,501,32,423,1,0,0,0,0,1,1,3,962,0,2,964,0,
25,321,17,397,5,0,0,0,0,0,1,1,742,0,2,744,0,
26,270,24,332,1,0,1,1,0,2,3,1,635,0,4,639,0,
27,257,5,386,2,2,1,0,1,2,7,4,667,0,10,677,0,
28,212,4,572,2,1,1,0,1,2,10,3,808,0,5,813,0,
29,121,1,309,3,0,0,0,0,0,2,0,436,0,1,437,0,
30,363,34,258,10,0,0,0,0,2,2,2,671,0,8,679,0,
31,371,2,437,8,1,1,1,0,0,2,3,826,0,3,829,0,
32,259,8,321,2,0,0,1,0,2,3,2,598,0,7,605,0,
33,233,7,362,0,0,0,1,0,1,1,1,606,0,3,609,0,
34,352,6,397,5,2,0,1,0,0,4,3,770,0,4,774,0,
35,398,19,638,22,0,1,0,2,2,1,2,1085,0,9,1094,0,
36,402,10,309,28,2,0,0,0,0,5,1,757,0,9,766,0,
37,392,25,262,15,3,1,2,0,1,5,1,707,0,8,715,0,
38,328,31,475,4,1,4,0,1,5,7,3,859,0,9,868,0,
39,223,40,364,12,0,0,0,2,2,4,3,650,0,2,652,0,
40,250,4,372,5,0,0,0,1,2,5,1,640,0,3,643,0,
41,427,12,576,18,1,1,2,0,1,7,2,1047,0,18,1065,0,
42,261,17,433,8,2,2,1,1,2,7,5,739,0,7,746,0,
43,211,0,323,3,0,0,1,1,1,3,3,546,0,12,558,0,
44,334,22,381,8,2,2,1,1,5,6,7,769,0,8,777,0,
45,202,12,389,7,0,0,2,0,2,5,2,621,0,8,629,0,
46,387,8,253,6,0,0,0,0,1,7,2,664,0,15,679,0,
47,212,3,301,7,0,1,0,2,3,6,6,541,0,11,552,0,
48,331,15,630,23,12,1,3,3,4,3,2,1027,0,13,1040,0,
49,547,21,540,23,12,3,3,2,1,2,1,1155,0,14,1169,0,
50,401,9,392,6,4,0,1,1,2,5,2,823,0,9,832,0,
51,306,2,435,43,0,0,0,0,1,5,7,799,0,5,804,0,
52,327,4,359,12,0,0,2,1,4,3,3,715,0,4,719,0,
53,292,5,317,9,0,0,1,1,1,3,5,634,0,6,640,0,
54,212,8,276,12,0,1,2,2,1,4,8,526,0,7,533,0,
55,352,18,395,8,0,1,1,0,2,1,1,779,0,5,784,0,
56,353,9,515,17,1,0,1,1,4,7,6,914,0,7,921,0,
57,303,3,374,7,0,0,0,1,6,3,3,700,0,6,706,0,
58,322,18,333,6,0,0,1,0,0,3,4,687,0,11,698,0,
59,266,3,390,5,0,0,1,0,1,5,0,671,0,5,676,0,
60,218,16,334,5,0,0,0,0,0,5,0,578,0,2,580,0,
61,275,4,417,7,0,0,0,1,1,7,3,715,0,5,720,0,
62,404,7,442,14,1,1,1,1,3,6,3,883,0,8,891,0,
63,298,7,358,n 3,0,0,1,0,1,4,3,675,0,6,681,0,
64,440,1 1,271,71,0,1,0,0,1,4,4,803,0,7,810,0,
65,310,9,372,9,0,0,3,1,0,4,1,709,0,7,716,0,
66,280,6,437,7,1,1,0,0,3,4,4,743,0,8,751,0,
67,394,35,317,14,0,0,0,0,2,,2,767,0,8,775,0,
68,312,8,474,4,2,0,1,2,4,7,6,820,0,15,835,0,
69,257,27,584,20,1,0,6,2,3,4,5,909,0,7,916,0,
70,215,3,276,6,0,1,0,0,0,2,4,507,0,4,511,0,
71,102,10,285,6,0,0,0,0,1,1,0,405,0,2,407,0,
72,216,25,579,16,1,1,0,2,5,6,3,854,0,7,861,0,
73,419,17,634,25,3,0,1,0,1,11,3,1114,0,6,1120,0,
74,331,11,307,11,2,0,0,0,1,3,1,667,0,6,673,0,
75,219,12,582,4,1,2,2,0,4,6,0,832,0,4,836,0,
76,395,34,469,11,2,0,0,2,1,7,7,928,0,11,939,0,
77,186,12,411,16,1,0,3,1,2,5,6,643,0,9,652,0,
78,511,44,142,24,2,0,0,0,0,4,1,728,0,6,734,0,
79,624,40,24,29,1,0,1,0,0,1,0,720,0,2,722,0,
80,111,13,380,8,0,1,2,2,5,8,6,536,0,6,542,0,
81,162,10,471,11,0,4,2,1,2,5,1,669,0,9,678,0,
82,212,24,508,9,0,1,0,0,5,1,7,767,0,11,778,0,
83,229,16,283,5,0,0,0,0,1,6,3,543,0,6,549,0,
84,133,21,620,14,0,1,0,0,1,8,2,800,0,5,805,0,
85,217,47,595,11,3,2,2,0,1,14,2,894,0,5,899,0,
86,361,33,576,5,2,2,2,1,4,5,3,994,0,8,1002,0,
87,3.5,8,478,21,2,1,0,1,0,5,6,872,0,6,878,0,
88,429,28,265,18,1,0,0,1,2,1,0,745,0,7,752,0,
89,263,6,374,5,1,2,1,0,1,1,2,656,0,4,660,0,
90,440,10,494,11,1,2,0,1,1,6,4,970,0,10,980,0,
91,563,35,403,17,1,1,1,0,4,7,0,1032,0,11,1043,0,
92,220,9,281,4,2,1,0,0,0,6,0,523,0,3,526,0,
93,326,21,505,8,1,1,2,1,0,3,3,871,0,8,879,0,
94,441,9,286,9,0,1,3,2,1,0,1,753,0,2,755,0,
95,336,18,400,6,1,0,1,0,1,2,2,767,0,3,770,0,
96,279,18,447,4,1,2,1,1,3,3,2,761,0,4,765,0,
97,315,15,242,3,0,1,0,0,0,4,3,583,0,5,588,0,
98,313,8,293,7,1,2,1,1,0,0,2,628,0,4,632,0,
99,437,35,515,10,1,0,2,1,0,8,6,1015,0,12,1027,0,
100,438,50,341,20,3,1,2,2,3,5,3,868,0,11,879,0,
101,377,12,491,12,0,1,1,1,4,4,2,905,0,12,917,0,
102,491,142,30,99,3,0,1,2,2,2,6,778,0,3,781,0,
103,346,10,397,4,1,0,1,1,3,4,3,770,0,6,776,0,
104,231,13,414,5,0,2,1,0,4,8,6,684,0,12,696,0,
105,269,20,343,11,0,0,1,3,0,5,1,653,0,1,654,0,
106,244,18,447,7,0,0,0,0,5,4,4,729,0,7,736,0,
107,318,6,405,1,2,2,4,0,3,0,1,742,0,3,745,0,
108,265,11,327,4,0,1,1,0,2,0,11,622,0,7,629,0,
109,359,27,677,13,2,0,1,4,6,1,3,1093,0,2,1095,0,
110,358,21,616,14,4,1,0,1,3,4,5,1027,0,8,1035,0,
111,358,19,766,21,3,1,3,5,2,11,5,1194,0,11,1205,0,
112,185,5,423,5,3,1,0,0,1,5,4,632,0,5,637,0,
113,197,10,357,8,1,1,1,2,0,4,2,583,0,6,589,0,
114,324,22,453,12,1,1,1,0,4,6,2,826,0,6,832,0,
115,526,34,386,29,2,1,0,2,1,2,2,985,0,2,987,0,
116,475,10,588,5,1,1,2,1,2,4,2,1091,0,2,1093,0,
117,328,5,55,9,0,0,0,0,0,0,2,399,0,1,400,0,
118,302,16,385,3,1,0,0,0,2,1,1,711,0,5,716,0,
119,196,5,221,4,2,0,0,0,1,4,2,435,0,2,437,0,
120,438,5,410,3,0,0,0,1,1,6,3,867,0,6,873,0,
121,287,8,265,7,1,0,1,0,0,1,3,573,0,10,583,0,
122,275,4,292,1,0,2,3,0,1,0,4,582,0,7,589,0,
123,213,15,374,13,1,3,2,0,2,5,1,629,0,6,635,0,
124,339,10,297,8,1,0,0,1,0,2,1,659,0,4,663,0,
125,230,14,377,5,1,1,3,0,4,7,6,648,0,6,654,0,
126,382,9,453,4,0,3,0,1,5,6,4,867,0,11,878,0,
127,373,22,434,1,0,3,0,1,1,2,0,837,0,4,841,0,
128,165,12,363,8,2,0,2,1,2,0,1,556,0,5,561,0,
129,162,10,490,5,1,1,6,0,0,3,1,679,0,4,683,0,
130,217,9,512,7,0,1,1,0,2,4,1,754,0,3,757,0,
131,197,4,555,34,2,0,5,1,0,12,2,812,0,12,824,0,
132,223,14,416,6,1,2,0,2,0,7,1,672,0,7,679,0,
133,259,20,331,4,0,3,5,0,0,2,2,626,0,4,630,0,
134,566,8,224,36,0,3,2,0,1,4,9,853,0,12,865,0,
135,507,14,305,35,1,2,1,2,3,4,5,879,0,16,895,0,
136,359,16,369,6,2,1,11,1,2,4,1,772,0,9,781,0,
137,364,17,405,6,1,2,7,5,1,3,4,815,0,10,825,0,
138,500,37,495,15,2,3,9,0,2,9,7,1079,0,17,1096,0,
139,367,5,255,3,1,0,1,2,2,2,6,644,0,7,651,0,
140,173,16,404,1,0,4,2,0,4,6,1,611,0,7,618,0,
141,780,32,34,10,1,1,0,1,1,2,2,864,0,16,880,0,
142,368,14,279,9,1,1,8,0,0,5,0,685,0,6,691,0,
143,245,24,225,6,1,0,1,4,3,4,2,515,0,7,522,0,
144,450,26,569,10,0,1,1,1,3,4,2,1067,0,10,1077,0,
145,171,12,239,6,2,0,2,0,2,3,0,437,0,8,445,0,
146,236,14,351,5,1,0,0,1,4,3,2,617,0,2,619,0,
147,315,16,423,10,1,0,1,0,0,0,1,767,0,9,776,0,
148,168,7,200,0,0,0,6,0,0,1,0,384,0,4,388,0,
149,204,8,169,1,0,0,1,0,1,1,1,386,0,2,388,0,
150,298,8,317,5,2,1,1,0,0,83,1,636,0,5,641,0,
151,310,4,309,3,0,0,2,0,2,4,2,636,0,3,639,0,
152,232,20,403,13,1,5,0,1,3,5,2,685,0,7,692,0,
153,466,27,555,11,1,3,2,1,4,7,3,1080,0,7,1087,0,
154,356,36,341,15,3,0,1,0,4,6,2,764,0,9,773,0,
155,265,9,242,4,0,2,0,1,1,6,2,532,0,6,538,0,
156,101,14,364,9,3,0,0,0,1,3,1,496,0,3,499,0,
157,239,19,565,5,0,0,0,1,2,4,1,836,0,5,841,0,
158,189,23,312,4,0,0,1,2,4,6,5,546,0,11,557,0,
159,202,12,347,3,0,1,3,1,0,4,4,577,0,4,581,0,
160,314,21,353,29,2,0,3,2,1,5,2,732,0,7,739,0,
161,360,21,429,23,1,1,1,0,3,7,9,855,0,14,869,0,
162,223,4,299,6,1,0,0,1,2,3,3,542,0,7,549,0,
163,569,16,324,15,0,0,1,2,1,7,6,941,0,16,957,0,
164,358,27,177,13,1,1,0,0,1,4,2,584,0,9,593,0,
165,248,12,164,7,1,0,0,0,4,2,3,441,0,2,443,0,
166,252,60,192,19,2,1,0,2,1,3,3,535,0,5,540,0,
167,294,25,144,28,2,0,0,0,0,1,1,495,0,5,500,0,
168,597,27,312,40,0,2,0,3,1,4,1,987,0,12,999,0,
169,566,38,56,25,0,2,0,0,2,1,5,695,0,7,702,0,
170,508,32,147,7,0,0,0,0,0,0,0,694,0,2,696,0,
171,271,6,334,4,0,0,2,1,2,9,3,632,0,4,636,0,
172,396,29,260,18,0,0,1,1,1,2,1,709,0,1,710,0,
173,340,14,342,19,0,1,3,2,3,2,0,726,0,1,727,0,
174,409,29,356,9,0,2,2,1,3,2,4,817,0,5,822,0,
175,309,23,479,12,1,0,1,1,1,4,1,832,0,6,838,0,
176,367,18,671,24,0,1,8,2,4,4,3,1102,0,7,1109,0,
177,225,16,589,11,1,2,0,0,1,4,4,853,0,7,860,0,
178,385,25,274,9,0,1,0,1,1,1,2,699,0,5,704,0,
179,579,21,343,7,1,3,0,0,1,6,1,962,0,6,968,0,
180,194,27,619,9,0,0,1,0,3,0,3,856,0,5,861,0,
181,443,59,152,39,0,1,1,0,3,2,2,702,0,7,709,0,
182,261,17,376,21,0,1,1,0,2,2,0,681,0,0,681,0,
183,267,17,335,7,1,0,0,0,0,1,4,632,0,7,639,0,
184,328,32,314,3,0,0,2,0,0,2,1,682,0,2,684,0,
185,288,8,218,18,0,0,1,1,0,1,0,535,0,2,537,0,
186,390,12,450,8,0,0,2,0,4,3,5,874,0,7,881,0,
187,243,11,456,13,0,3,2,0,3,7,2,740,0,5,745,0,
188,168,38,457,6,0,0,0,2,2,0,0,673,0,7,680,0,
189,212,31,389,3,1,0,1,0,0,4,1,642,0,2,644,0,
190,427,25,429,10,0,1,0,1,2,1,4,900,0,10,910,0,
191,337,18,574,10,0,1,3,1,1,5,2,952,0,12,964,0,
192,360,6,489,4,0,1,1,1,3,3,2,870,0,7,877,0,
193,380,19,671,12,3,1,1,2,0,5,3,1097,0,13,1110,0,
195,188,16,431,2,0,0,0,1,1,5,2,646,0,4,650,0,
196,187,5,213,2,0,0,0,0,3,3,0,413,0,3,416,0,
197,345,5,231,3,0,1,1,0,0,1,2,589,0,4,593,0,
198,347,10,296,5,2,1,0,2,1,4,5,673,0,5,678,0,
199,391,23,375,8,2,2,8,2,1,0,0,812,0,2,814,0,
200,315,10,370,0,1,1,1,1,2,4,1,706,0,4,710,0,
201,247,12,356,2,0,2,1,0,0,2,0,622,0,2,624,0,
202,134,32,463,12,0,1,1,0,1,2,0,646,0,1,647,0,
203,671,36,430,9,5,1,1,0,0,2,2,1157,0,11,1168,0,
204,359,27,452,13,0,2,2,1,1,0,4,861,0,5,866,0,
205,385,15,419,8,3,1,1,1,1,5,6,845,0,8,853,0,
206,591,26,369,12,3,1,8,0,3,5,1,1019,0,12,1031,0,
207,350,24,240,13,3,1,2,1,2,1,9,646,0,5,651,0,
208,347,16,259,7,1,0,2,0,1,4,4,641,0,4,645,0,
209,438,13,360,35,1,0,1,2,0,3,0,853,0,7,860,0,
210,334,16,504,7,0,0,1,0,3,3,6,874,0,?7,881,0,
211,247,4,326,3,0,0,1,0,0,1,1,583,0,5,588,0,
212,359,5,439,2,0,0,0,1,1,0,4,811,0,5,816,0,
213,405,12,469,6,0,0,1,0,2,2,5,902,0,2,904,0,
214,413,17,481,7,1,0,0,2,1,3,1,926,0,3,929,0,
215,418,8,460,16,8,2,2,1,1,4,6,926,0,7,933,0,
216,208,8,599,7,2,0,3,1,0,3,2,833,0,1,834,0,
217,490,18,428,10,9,2,2,2,1,5,2,969,0,10,979,0,
218,318,9,298,5,5,2,1,1,1,4,3,647,0,4,651,0,
219,462,21,356,10,2,0,2,2,4,3,5,867,0,9,876,0,
220,489,32,315,19,3,2,4,2,6,5,4,881,0,5,886,0,
221,392,46,397,13,2,2,2,1,3,2,3,863,0,6,869,0,
222,421,78,304,4,1,2,2,1,1,2,3,819,0,18,837,0,
223,217,22,341,12,1,2,0,3,4,9,5,616,0,4,620,0,
224,224,21,482,6,2,0,0,3,5,0,0,743,0,0,743,0,
225,448,24,465,12,11,3,3,0,0,3,4,973,0,2,975,0,
226,491,9,149,28,0,0,0,0,2,2,2,683,0,12,695,0,
227,805,39,131,53,0,2,0,3,2,2,5,1042,0,21,1063,0,
228,321,37,382,9,1,0,2,3,4,8,83,770,0,10,780,0,
229,487,13,152,12,2,0,5,0,0,1,3,675,0,5,680,0,
230,279,37,737,10,3,2,3,2,5,0,3,1081,0,6,1087,0,
231,320,48,701,23,5,2,2,2,3,5,5,1116,0,17,1133,0,
232,342,55,527,11,2,1,2,0,6,12,6,964,0,7,971,0,
233,341,34,425,14,1,2,3>,4,5,7,0,836,0,7,843,0,
234,322,45,543,11,2,0,2,1,0,3,8,937,0,10,947,0,
235,312,70,655,10,1,1,0,0,2,2,0,1053,0,6,1059,0,
236,491,42,296,15,1,1,8,0,1,1,4,860,0,7,867,0,
237,358,27,73,13,1,0,1,0,4,1,2,480,0,10,490,0,
238,541,63,157,36,0,4,1,1,3,1,4,811,0,6,817,0,
239,204,38,791,14,3,2,1,2,8,7,8,1078,0,7,1085,0,
240,233,25,533,11,0,4,2,3,3,2,3,819,0,6,825,0,
241,278,38,337,11,5,4,4,8,10,12,9,716,0,12,728,0,
242,363,36,360,21,0,0,0,2,2,3,2,789,0,4,793,0,
243,229,7,405,7,3,1,0,1,2,4,3,662,0,2,664,0,
244,139,6,515,10,1,0,1,0,1,3,0,676,0,5,681,0,
245,365,47,339,7,0,0,3,0,1,3,2,767,0,9,776,0,
246,249,23,691,9,0,0,2,3,2,6,3,988,0,10,998,0,
247,271,33,564,9,2,1,3,1,1,4,3,892,0,10,902,0,
248,169,26,231,4,1,0,1,1,2,3,2,440,0,3,443,0,
249,591,19,373,23,4,1,4,1,4,1,4,1025,0,9,1034,0,
250,105,44,270,4,3,1,2,0,0,0,0,429,0,3,432,0,
251,208,46,421,15,0,0,0,0,3,2,4,699,0,6,705,0,
252,177,56,447,7,1,0,4,0,0,1,1,694,0,11,705,0,
253,278,30,675,24,1,1,0,2,4,2,2,1019,0,6,1025,0,
254,211,20,576,15,2,1,1,1,0,2,3,832,0,3,835,0,
255,351,43,444,17,3,1,2,1,1,0,2,865,0,11,876,0,
256,191,7,362,8,0,0,0,0,0,1,2,571,0,3,574,0,
257,142,67,291,11,0,0,0,1,0,1,1,514,0,5,519,0,
258,138,132,384,7,2,0,1,0,1,1,1,667,0,12,679,0,
259,177,40,478,10,1,2,2,0,3,0,4,717,0,6,723,0,
260,121,41,376,5,0,1,0,1,0,0,0,545,0,3,548,0,
261,373,36,610,14,3,1,5,0,3,5,3,1053,0,16,1069,0,
262,253,18,543,10,0,0,1,0,0,3,1,829,0,9,838,0,
263,540,25,464,19,0,3,1,1,3,3,6,1065,0,18,1083,0,
264,299,41,374,7,1,1,1,1,1,0,5,731,0,11,742,0,
265,344,19,363,13,0,1,1,1,2,3,9,756,0,4,760,0,
266,192,52,677,15,0,2,1,3,0,1,3,946,0,7,953,0,
267,176,21,722,12,2,0,4,2,3,5,4,951,0,11,962,0,
268,201,30,631,7,0,0,0,0,4,2,2,877,0,4,881,0,
269,193,20,556,11,1,1,0,1,3,1,1,788,0,4,792,0,
270,204,9,393,8,0,2,0,0,1,4,2,623,0,5,628,0,
1,465,12,527,21,2,0,1,2,2,5,2,1039,0,8,1047,0,
2,328,1,342,3,0,0,1,2,1,0,1,679,0,1,680,0,
3,421,5,587,4,1,1,0,1,1,1,0,1022,0,4,1026,0,
4,382,12,317,4,2,0,4,0,0,2,4,727,0,5,732,0,
5,670,69,426,11,3,0,0,1,2,4,2,1188,0,17,1205,0,
6,360,5,267,12,0,2,1,2,0,3,1,653,0,7,660,0,
7,614,30,129,57,0,1,1,0,6,8,6,852,0,13,865,0,
8,227,16,357,11,0,1,2,0,2,0,0,616,0,5,621,0,
9,564,43,117,52,1,0,0,0,1,1,0,779,0,4,783,0,
10,335,34,408,15,0,1,0,0,0,1,2,796,0,5,801,0,
11,46,8,306,2,0,0,1,0,0,1,0,364,0,0,364,0,
12,651,34,163,22,2,0,1,1,3,2,3,882,0,6,888,0,
13,564,66,294,22,1,1,2,1,1,0,6,958,0,6,964,0,
14,498,23,386,19,1,1,1,1,3,3,10,946,0,5,951,0,
15,504,25,374,22,1,1,5,0,2,1,5,940,0,6,946,0,
16,623,159,138,21,2,0,2,2,2,0,6,955,0,9,964,0,
17,456,24,388,17,1,1,0,2,2,3,4,898,0,9,907,0,
18,492,27,308,45,0,1,0,0,3,3,4,883,0,15,898,1,
19,839,27,72,74,0,0,7,0,2,0,5,1026,0,8,1034,0,
20,747,119,216,19,1,1,2,0,5,2,1,1113,0,9,1122,0,
21,514,219,125,26,0,0,1,1,1,0,0,887,0,9,896,0,
22,156,13,328,7,0,0,0,0,2,6,1,513,0,4,517,0,
23,193,40,624,19,3,3,2,0,7,10,6,907,0,7,914,0,
24,203,21,526,49,1,2,1,1,6,2,3,815,0,5,820,0,
25,345,37,332,16,2,0,0,0,2,1,0,735,0,1,736,0,
26,312,39,340,24,0,1,3,1,3,4,5,732,0,9,741,0,
27,142,6,252,6,0,1,0,0,1,0,2,410,0,1,411,0,
28,380,56,313,18,0,1,1,3,5,5,3,785,0,11,796,0,
29,175,12,219,8,2,0,1,0,4,3,3,427,0,3,430,0,
30,409,14,441,9,2,0,4,0,2,0,4,885,0,8,893,0,
31,227,10,261,12,0,1,0,2,4,2,0,519,0,9,528,0,
32,419,15,460,14,2,0,0,1,3,6,2,922,0,21,943,0,
33,372,26,309,30,3,0,0,1,4,5,1,751,0,3,754,0,
34,342,24,410,10,2,2,0,0,3,4,5,802,0,14,816,0,
35,365,33,427,33,0,3,6,2,2,1,5,877,0,4,881,0,
36,435,19,441,15,2,0,3,2,1,0,5,923,0,11,934,0,
37,192,11,356,14,1,1,0,2,0,1,3,581,0,6,587,0,
38,136,11,559,38,0,1,0,1,3,5,4,758,0,1,765,0,
39,172,26,254,26,0,0,1,0,3,0,3,485,0,5,490,0,
40,226,22,367,16,2,0,0,1,4,0,1,639,0,4,643,0,
41,240,42,329,19,2,0,1,0,0,2,2,637,0,2,639,0,
42,320,55,672,44,0,1,3,1,2,4,6,1108,0,16,1124,0,
43,323,86,473,26,0,2,1,2,2,2,3,920,0,7,927,0,
44,282,15,378,16,0,0,2,0,5,8,1,707,0,12,719,0,
45,302,10,383,23,1,1,1,0,0,9,2,732,0,8,740,0,
46,388,68,462,67,4,1,3,0,4,4,3,1004,0,8,1012,0,
47,392,28,487,16,0,1,1,0,2,2,4,933,0,8,941,0,
48,258,12,387,8,1,1,0,0,1,3,2,673,0,6,679,0,
49,443,58,311,33,1,0,1,2,1,8,6,864,0,2,866,0,
50,270,47,475,30,1,0,1,1,1,7,3,836,0,13,849,0,
51,362,67,484,29,2,1,1,1,2,5,6,960,0,10,970,0,
52,301,38,500,16,1,1,2,1,2,5,10,877,0,13,890,0,
53,368,11,334,36,1,0,2,1,0,3,2,758,0,8,766,0,
54,473,28,551,9,1,2,2,1,0,4,4,1075,0,15,1090,0,
55,225,36,208,4,0,0,1,1,2,3,1,481,0,4,485,0,
56,251,38,312,9,2,0,0,1,4,0,4,621,0,9,630,0,
57,303,75,231,15,2,0,0,0,2,2,1,631,0,5,636,0,
58,187,76,393,13,1,1,1,0,2,8,4,686,0,7,693,0,
59,192,85,406,13,0,0,0,1,1,1,1,700,0,8,708,0,
60,134,73,338,11,0,1,1,1,4,2,6,571,0,5,576,1,
61,235,77,305,30,0,0,1,0,1,2,0,651,0,6,657,0,
62,190,102,305,37,1,1,1,0,1,4,2,644,0,5,649,0,
63,461,68,435,9,3,0,0,1,2,5,6,990,0,9,999,0,
64,319,302,379,9,1,0,2,1,3,0,11,1027,0,13,1040,0,
65,463,66,411,23,4,2,5,1,1,8,9,993,0,12,1005,0,
66,272,24,282,4,0,1,0,1,0,0,6,590,0,6,596,0,
67,289,36,417,9,1,1,0,0,1,2,1,757,0,3,760,0,
68,330,30,411,16,2,0,0,0,2,3,2,796,0,8,804,0,
69,292,23,198,25,0,1,0,0,2,1,0,542,0,3,545,0,
70,293,84,326,32,2,2,2,3,7,3,6,760,0,10,770,1,
71,299,128,259,10,1,2,0,2,2,4,0,707,0,4,711,0,
72,400,38,426,14,0,0,2,1,2,4,3,890,0,5,895,0,
73,353,81,492,33,1,0,2,0,5,8,2,977,0,4,981,0,
74,250,23,365,n0,2,2,1,2,2,2,3,762,0,9,771,0,
75,260,16,234,27,0,1,0,1,1,2,2,544,0,7,551,0,
76,221,71,332,70,1,0,2,1,5,0,3,706,0,4,710,0,
77,247,8,123,6,0,0,2,0,2,1,2,391,0,5,396,0,
78,375,113,383,50,0,0,1,2,5,1,7,937,0,g,945,0,
79,320,184,198,32,2,0,2,0,3,3,2,746,0,11,757,0,
80,237,36,340,6,1,0,1,0,1,1,0,623,0,0,623,0,
81,257,19,310,19,2,0,3,0,3,2,2,617,0,3,620,0,
82,369,21,267,24,1,0,0,0,0,1,3,686,0,7,693,0,
83,281,51,367,20,2,3,1,1,3,3,2,734,0,4,738,0,
84,210,16,346,10,0,1,0,2,2,0,3,590,0,4,594,0,
85,290,21,525,23,0,0,2,0,0,6,1,868,0,4,872,0,
86,356,20,440,7,1,0,3,0,4,5,6,842,0,11,853,0,
87,360,24,445,15,2,0,1,0,0,3,0,850,0,3,853,0,
88,296,18,453,35,0,0,1,0,2,3,4,812,0,4,816,0,
89,235,32,440,6,2,1,1,1,0,4,2,724,0,11,735,0,
90,272,16,412,3,1,2,1,2,0,3,0,712,0,8,720,0,
91,172,24,361,24,3,0,1,0,1,0,0,586,0,8,594,0,
92,142,16,350,24,0,0,0,2,3,2,4,543,0,2,545,0,
93,117,26,379,13,0,0,1,3,1,4,3,547,0,9,556,0,
94,211,29,305,8,1,4,0,2,4,1,3,568,0,11,579,0,
95,238,17,307,17,0,0,1,4,1,0,1,586,0,9,595,0,
96,225,16,332,5,0,0,2,1,0,3,2,586,0,3,589,0,
97,231,54,423,10,0,2,3,0,0,5,9,737,0,6,743,0,
98,400,35,494,19,1,0,2,1,2,4,7,965,0,6,971,0,
99,401,55,429,12,1,0,0,0,1,3,1,903,0,1,904,0,
100,403,31,229,76,2,0,3,3,2,2,1,752,0,15,767,0,
101,272,19,474,32,2,2,0,1,0,4,1,807,0,5,812,0,
102,322,31,553,9,0,2,2,1,4,3,4,931,0,10,941,0,
103,338,1 1,538,11,0,0,0,1,4,5,5,913,0,8,921,0,
104,259,10,445,19,0,0,0,0,1,4,1,739,0,4,743,0,
105,472,6,483,2,1,0,1,0,1,3,3,972,0,9,981,0,
106,248,18,492,12,0,4,1,0,1,7,7,790,0,12,802,0,
107,209,14,374,13,0,0,0,1,3,2,5,621,0,6,627,0,
108,236,7,261,1,0,0,2,1,3,1,0,512,0,7,519,0,
109,344,11,479,28,1,0,1,1,0,1,1,867,0,1,868,0,
110,330,29,581,11,1,1,2,0,1,7,2,965,0,6,971,0,
111,209,4,367,47,0,0,0,0,0,2,1,630,0,3,633,0,
112,308,15,575,38,0,1,1,1,2,5,6,952,0,15,967,0,
113,148,13,352,61,0,0,0,1,1,n 3,6,585,0,4,589,0,
114,147,10,309,38,2,1,0,1,2,6,5,521,0,4,525,0,
115,252,27,574,52,2,2,2,5,2,5,5,928,0,9,937,0,
116,254,23,407,54,2,2,3,0,1,2,11,759,0,9,768,0,
117,137,18,546,118,1,4,2,2,6,6,3,843,0,7,850,0,
118,209,13,373,26,0,3,0,2,1,3,2,632,0,5,637,0,
119,177,32,449,64,1,0,3,2,4,9,7,748,0,5,753,0,
120,213,4,169,16,0,0,0,0,0,1,0,403,0,2,405,0,
121,229,6,200,3,0,0,0,0,1,1,3,443,0,1,444,0,
122,281,32,333,76,2,1,1,1,4,3,2,736,0,2,738,0,
123,213,17,261,105,0,0,1,0,3,1,1,602,0,6,608,0,
124,302,7,456,17,1,1,2,1,2,2,9,800,0,13,813,0,
125,269,17,361,32,0,1,1,1,2,2,3,689,0,9,698,0,
126,203,17,335,39,4,1,0,0,3,4,2,608,0,6,614,0,
127,418,27,600,32,2,0,0,8,2,3,4,1096,0,10,1106,0,
128,259,50,258,17,1,0,22,2,3,2,8,622,0,9,631,0,
129,455,83,234,9,1,0,11,0,2,0,2,797,0,7,804,0,
130,236,31,535,15,1,3,1,3,5,1,4,835,0,9,844,0,
131,257,43,508,16,1,0,3,3,0,0,6,837,0,8,845,0,
132,134,23,417,10,0,1,7,1,0,1,3,597,0,2,599,0,
133,159,9,279,6,0,2,3,2,0,1,1,462,0,3,465,0,
134,457,15,417,7,1,0,8,1,3,1,0,910,0,8,918,0,
135,346,5,458,8,2,0,7,1,0,1,3,831,0,3,834,0,
136,203,47,463,7,1,0,0,0,0,1,2,724,0,2,726,0,
137,237,30,651,15,0,1,2,2,4,2,2,946,0,14,960,0,
138,167,14,671,14,3,2,5,0,2,8,4,890,0,9,899,0,
139,158,5,379,8,0,1,0,0,2,0,2,555,0,6,561,0,
140,206,31,471,7,0,1,2,0,2,4,2,726,0,3,729,0,
141,289,26,493,8,1,0,0,0,1,0,2,820,0,3,823,0,
142,417,5,549,6,0,0,0,1,1,3,5,987,0,5,992,0,
143,213,3,200,0,1,0,0,0,0,2,0,419,0,4,423,0,
144,504,24,439,38,3,1,0,0,2,1,3,1015,0,7,1022,0,
145,440,41,463,32,1,1,4,1,1,5,1,990,0,6,996,0,
146,264,20,350,10,1,0,0,0,1,4,0,650,0,2,652,0,
147,373,21,442,19,3,0,1,1,5,7,3,875,0,8,883,0,
148,394,80,340,14,0,2,0,2,2,1,2,837,0,1,838,0,
149,339,63,141,13,0,1,9,0,2,0,1,569,0,5,574,0,
150,313,20,627,16,0,0,2,1,3,2,1,985,0,7,992,0,
151,379,53,102,12,0,1,2,1,1,0,4,555,0,5,560,0,
152,390,23,488,19,1,1,5,6,1,1,1,936,0,5,941,0,
153,332,28,354,35,1,0,1,0,1,6,1,759,0,7,766,0,
154,459,71,41,11,0,2,0,0,1,2,3,590,0,8,598,0,
155,268,17,309,4,1,0,0,1,1,3,2,606,0,5,611,0,
156,679,84,287,13,1,1,1,1,5,2,1,1075,0,4,1079,0,
157,369,29,267,20,0,0,1,1,2,5,0,694,0,6,700,0,
158,363,19,572,13,2,0,1,1,3,3,7,984,0,4,988,0,
159,174,5,371,4,0,0,2,0,1,4,2,563,0,'> 3,566,0,
160,280,1 1,243,5,0,0,2,0,1,1,1,544,0,6,550,0,
161,342,7,331,5,1,0,0,0,1,2,3,692,0,9,701,0,
162,335,33,235,5,0,0,0,0,0,0,1,609,0,2,611,0,
163,247,24,283,7,0,0,0,0,1,2,1,565,0,6,571,0,
164,303,56,319,10,0,0,0,3,3,1,3,698,0,1,705,0,
165,264,15,352,11,0,0,0,0,0,2,1,645,0,4,649,0,
166,261,19,726,5,1,0,3,0,0,4,3,1022,0,3,1025,0,
167,390,42,271,12,0,0,0,3,0,0,4,722,0,4,726,0,
168,271,41,270,9,0,0,2,0,1,1,4,599,0,6,605,0,
169,462,28,317,8,0,1,2,0,0,4,1,823,0,10,833,0,
170,643,50,218,14,3,0,1,0,1,4,2,936,0,2,938,0,
171,317,33,759,8,0,0,1,0,3,5,5,1131,0,5,1136,0,
172,300,20,540,9,0,2,2,1,1,2,2,879,0,3,882,0,
173,388,7,430,6,1,0,2,0,0,4,1,839,0,0,839,0,
174,257,6,685,13,0,1,0,1,2,8,2,975,0,9,984,0,
175,399,15,593,9,0,1,0,0,1,14,5,1037,0,12,1049,0,
176,215,13,215,1,0,0,0,0,3,1,4,452,0,4,456,0,
177,310,14,340,8,0,0,1,0,3,4,2,682,0,4,686,0,
178,244,30,341,2,0,0,0,1,2,3,3,626,0,6,632,0,
179,238,22,303,4,0,0,0,2,1,2,1,573,0,5,578,0,
180,287,23,180,16,0,0,1,0,2,1,0,510,0,13,523,0,
181,405,32,412,8,4,0,2,5,5,5,2,880,0,18,898,0,
182,498,40,506,19,1,0,1,1,3,1,4,1074,0,10,1084,0,
183,234,27,313,7,2,1,0,2,0,0,1,587,0,7,594,0,
184,409,16,343,7,0,0,0,0,0,0,3,778,0,6,784,0,
185,279,26,393,7,0,1,2,0,0,9,7,724,0,9,733,0,
186,421,18,461,11,0,1,0,1,3,2,1,919,0,10,929,0,
187,393,9,420,20,2,1,4,0,2,0,2,853,0,3,856,0,
188,325,14,464,14,1,2,0,0,2,6,4,832,0,2,834,0,
189,343,15,299,14,0,0,0,0,3,4,3,681,0,13,694,0,
190,325,17,358,26,1,3,1,0,5,3,1,740,0,6,746,0,
191,439,35,507,12,2,1,3,1,1,4,3,1008,0,13,1021,0,
192,223,4,241,7,1,1,2,0,2,3,3,487,0,7,494,0,
193,647,54,270,33,1,4,0,0,6,9,6,1030,0,19,1049,0,
194,361,16,170,11,0,1,0,2,2,3,5,571,0,8,579,0,
195,420,22,93,13,1,0,1,1,2,2,1,556,0,7,563,0,
196,362,5,199,3,0,1,1,1,1,2,0,575,0,4,579,0,
197,434,10,401,20,2,0,1,0,4,7,6,885,0,3,888,0,
198,346,11,167,9,2,0,0,0,3,0,0,538,0,6,544,0,
199,174,8,395,12,0,0,0,0,0,2,0,591,0,4,595,0,
200,206,6,440,21,0,0,0,1,0,1,1,676,0,3,679,0,
201,166,13,488,7,0,0,2,2,0,3,3,684,0,4,688,0,
202,224,20,439,9,0,1,3,0,3,10,3,712,0,1,713,0,
203,352,50,21,10,1,0,0,0,0,0,1,435,0,1,436,0,
204,212,17,671,35,3,1,4,0,3,3,6,955,0,11,966,0,
205,250,7,382,20,1,0,1,1,2,3,1,668,0,10,678,0,
206,406,16,118,34,0,0,1,0,0,2,1,578,0,4,582,0,
207,181,32,414,7,0,0,2,2,3,3,1,645,0,4,649,0,
208,286,13,252,7,0,0,1,0,0,3,1,563,0,7,570,0,
209,432,58,239,18,1,0,1,0,0,3,3,755,0,11,766,0,
210,545,30,128,31,2,1,0,0,3,1,0,741,0,9,750,0,
211,460,36,457,25,1,1,2,0,2,6,5,995,0,14,1009,0,
212,760,99,146,51,0,0,2,1,2,3,8,1072,0,23,1095,0,
213,203,25,505,9,3,0,2,0,3,3,2,755,0,9,764,0,
214,445,19,307,17,1,0,4,0,0,1,3,797,0,9,806,0,
215,199,5,381,10,0,0,0,2,2,0,4,603,0,3,606,0,
216,167,18,439,6,0,1,6,0,0,3,1,641,0,3,644,0,
217,351,35,689,18,4,1,7,0,5,6,4,1120,0,12,1132,0,
218,635,50,147,22,1,1,7,2,1,2,3,871,0,9,880,0,
219,463,39,94,14,1,1,1,0,6,1,1,621,0,4,625,0,
220,155,26,438,8,2,1,4,0,4,5,2,645,0,7,652,0,
221,161,3,429,8,0,0,6,0,4,7,9,627,0,12,639,0,
222,145,19,297,9,0,0,0,0,0,0,0,470,0,4,474,0,
223,249,28,396,2,1,0,1,1,2,1,1,682,0,5,687,0,
224,152,15,497,10,0,0,1,0,3,1,1,680,0,5,685,0,
225,378,24,592,27,2,1,1,4,4,8,4,1045,0,16,1061,0,
226,131,51,734,27,2,2,0,6,2,5,5,965,0,7,972,0,
227,161,46,354,10,0,2,1,1,3,0,0,578,0,2,580,0,
228,151,36,554,24,3,0,2,3,2,2,0,777,0,5,782,0,
229,170,30,456,5,0,0,1,0,1,0,1,664,0,0,664,0,
230,137,18,554,9,2,2,3,0,4,3,2,734,0,3,737,0,
231,178,12,447,13,0,1,1,0,5,4,6,667,0,4,671,0,
232,166,23,523,10,0,0,2,2,3,3,1,733,0,6,739,0,
233,219,27,562,21,3,2,5,3,1,4,4,851,0,16,867,0,
234,192,6,495,11,0,1,1,0,1,0,4,711,0,g,719,0,
235,337,41,472,16,1,2,2,2,2,5,10,890,0,15,905,0,
236,153,16,538,19,0,1,2,1,8,4,2,744,0,5,749,0,
237,299,12,679,15,0,2,3,3,4,12,4,1033,0,16,1049,0,
238,231,15,300,15,1,0,0,4,1,5,2,574,0,5,579,0,
239,227,32,529,10,0,0,1,3,0,4,4,810,0,8,818,0,
240,199,86,293,3,0,1,1,1,1,2,4,591,0,9,600,0,
241,156,33,425,8,1,1,0,0,3,3,0,630,0,5,635,0,
242,159,11,413,7,2,1,1,6,1,0,2,603,0,5,608,0,
243,354,50,495,21,0,2,2,1,1,5,2,933,0,17,950,0,
244,308,27,349,7,1,0,1,0,0,0,2,695,0,5,700,0,
245,122,55,486,25,2,0,0,0,3,0,1,694,0,4,698,0,
246,137,53,415,16,3,1,1,0,0,0,0,626,0,7,633,0,
247,147,46,357,11,1,0,5,0,2,2,0,571,0,5,576,0,
248,367,16,418,14,1,0,4,2,0,2,3,827,0,5,832,0,
249,139,42,297,10,0,1,0,2,1,0,1,493,0,7,500,0,
250,215,47,451,14,0,1,1,3,0,0,0,732,0,,743,1,
251,172,18,489,24,0,0,3,0,3,1,0,710,0,17,727,0,
252,125,62,386,17,1,2,1,3,0,1,1,599,0,3,602,0,
253,172,13,853,16,3,0,4,0,3,2,3,1069,0,13,1082,0,
254,522,26,523,28,1,0,4,2,3,6,1,1116,0,7,1123,0,
255,155,7,699,13,0,3,4,4,4,0,7,896,0,6,902,0,
256,170,26,454,18,1,0,3,0,0,2,5,679,0,9,688,0,
257,177,16,479,16,0,2,1,1,1,3,2,698,0,2,700,0,
258,223,17,500,19,3,2,3,0,2,8,1,778,0,4,782,0,
259,291,21,546,46,0,2,4,1,0,2,0,913,0,8,921,0,
260,116,22,532,79,0,1,3,2,1,10,12,778,0,11,789,0,
261,140,15,404,16,0,0,2,1,0,5,1,584,0,4,588,0,
262,206,18,494,14,3,2,0,2,1,3,2,745,0,5,750,0,
263,166,15,547,6,0,0,0,0,0,2,0,736,0,2,738,0,
264,125,22,264,3,0,1,1,0,0,0,1,417,0,8,425,0,
265,413,39,639,19,0,0,3,1,1,1,1,1117,0,7,1124,0,
266,94,10,458,6,1,1,1,0,1,0,3,575,0,3,578,0,
267,98,46,480,11,0,0,4,0,0,2,0,641,0,7,648,0,
268,137,20,516,6,1,1,1,0,0,2,4,688,0,6,694,0,
269,279,18,338,6,1,0,1,0,2,1,1,647,0,10,657,0,
270,227,31,493,8,2,2,3,1,4,4,2,777,0,3,780,0,
271,221,36,208,3,0,0,1,1,1,2,5,478,0,7,485,0,
272,311,21,723,7,0,0,2,1,2,3,2,1072,0,4,1076,0,
273,289,7,314,19,1,0,2,0,1,2,5,640,0,6,646,0,
274,255,22,376,6,0,0,5,1,1,4,4,674,0,5,679,0,
275,336,32,646,14,2,4,13,2,3,7,5,1064,0,8,1072,1,
276,247,6,492,8,7,0,3,0,3,7,4,777,0,8,785,0,
277,120,14,253,6,0,0,5,1,1,2,2,404,0,4,408,0,
278,251,35,547,12,5,3,7,1,1,5,7,874,0,11,885,0,
279,361,33,411,52,1,0,4,0,1,3,2,868,0,7,875,0,
280,212,23,291,15,0,0,7,0,2,9,2,561,0,8,569,0,
281,116,19,422,2,1,0,8,0,2,3,1,574,0,2,576,0,
282,263,21,439,12,1,3,10,1,1,3,4,758,0,2,760,0,
283,195,29,410,10,0,2,2,0,1,3,1,653,0,11,664,0,
284,290,7,199,8,0,0,4,1,1,1,2,513,0,2,515,0,
285,348,66,276,27,0,1,17,1,1,4,2,743,0,6,749,0,
286,410,48,213,12,0,0,7,2,0,1,4,697,0,12,709,0,
287,219,24,408,7,1,0,8,0,3,4,4,678,0,5,683,0,
288,222,23,590,27,8,3,3,2,2,3,1,884,0,5,889,0,
289,271,27,528,16,0,3,4,0,2,4,2,857,0,9,866,0,
290,334,44,453,10,0,0,0,0,1,5,0,847,0,4,851,0,
291,241,17,271,31,0,0,2,0,1,5,4,572,0,6,578,0,
292,287,44,616,19,5,1,3,5,3,8,5,996,0,15,1011,0,
293,246,27,394,10,1,0,1,0,0,1,4,684,0,4,688,0,
294,275,52,321,17,4,2,1,2,3,1,2,680,0,6,686,0,
295,235,16,367,9,1,0,2,0,1,1,0,632,0,7,639,0,
296,203,44,228,4,0,0,0,1,0,1,0,481,0,4,485,0,
297,411,30,533,53,4,2,1,1,3,6,8,1052,0,9,1061,0,
298,319,66,277,11,0,2,1,0,1,3,1,681,0,3,684,0,
299,322,37,350,7,1,1,1,0,0,2,3,724,0,5,729,0,
300,378,42,317,9,3,0,1,0,2,2,0,754,0,5,759,0,
301,453,72,357,47,0,3,0,0,2,3,3,940,0,14,954,0,
302,437,115,380,6,1,1,2,1,2,1,2,948,0,8,956,0,
303,402,46,264,5,1,0,1,1,3,0,6,729,0,7,736,0,
304,313,8,234,5,0,0,2,0,2,1,2,567,0,5,572,0,
305,231,25,301,7,0,0,0,0,1,1,2,568,0,6,574,0,
295,235,16,367,9,1,0,2,0,1,1,0,632,0,7,639,0,
296,203,44,228,4,0,0,0,1,0,1,0,481,0,4,485,0,
297,411,30,533,53,4,2,1,1,3,6,8,1052,0,9,1061,0,
298,319,66,277,1 1,0,2,1,0,1,3,1,681,0,3,684,0,
299,322,37,350,7,1,1,1,0,0,2,3,724,0,5,729,0,
300,378,42,317,9,3,0,1,0,2,2,0,754,0,5,759,0,
301,453,72,357,47,0,3,0,0,2,3,3,940,0,14,954,0,
302,437,115,380,6,1,1,2,1,2,1,2,948,0,8,956,0,
303,402,46,264,5,1,0,1,1,3,0,6,729,0,7,736,0,
304,313,8,234,5,0,0,2,0,2,1,2,567,0,5,572,0,
305,231,25,301,7,0,0,0,0,1,1,2,568,0,6,574,0,
1,643,14,102,2,0,3,2,1,4,4,2,777,0,11,788,0,
2,314,15,457,8,0,1,3,1,5,6,3,813,0,14,827,0,
3,293,27,228,3,0,0,2,1,3,0,4,561,0,8,569,0,
4,508,29,411,17,1,1,2,2,3,7,8,989,0,n,1000,0,
5,782,20,87,13,1,1,2,0,0,1,2,909,0,4,913,0,
6,273,21,356,7,0,1,0,0,0,1,0,659,0,8,667,0,
7,650,27,11,1,0,0,0,0,0,0,1,690,0,2,692,0,
8,564,32,4,2,0,0,1,1,1,1,1,607,0,1,608,0,
9,581,6,38,4,0,0,0,0,0,0,1,630,0,0,630,0,
10,651,16,58,13,0,0,0,1,2,4,4,749,0,7,756,0,
11,571,38,6,20,0,0,0,0,0,1,2,638,0,6,644,0,
12,583,42,11,17,0,0,1,2,2,0,3,661,0,12,673,0,
13,943,26,38,5,0,2,1,0,6,0,6,1027,0,8,1035,0,
14,675,56,81,4,0,0,0,0,2,6,5,829,0,11,840,0,
15,335,17,324,5,0,1,2,0,5,3,6,698,0,16,714,0,
16,474,74,281,12,0,0,2,2,3,3,6,857,0,15,872,0,
17,270,24,581,17,1,2,0,0,3,6,2,906,0,9,915,0,
18,329,33,488,19,0,0,10,1,14,6,12,912,0,17,929,0,
19,363,17,467,14,3,1,1,1,1,4,7,879,0,4,883,0,
20,266,16,728,12,1,1,8,2,2,9,3,1048,0,10,1058,0,
21,589,13,320,5,0,3,3,1,4,6,7,951,0,10,961,0,
22,253,39,372,28,3,3,11,0,2,6,5,722,0,9,731,0,
23,325,20,392,13,3,0,1,0,4,2,4,764,0,17,781,0,
24,507,43,503,35,2,2,4,2,6,9,4,1117,0,12,1129,0,
25,477,38,226,36,3,0,2,0,4,1,5,792,0,22,814,0,
26,399,25,230,45,3,1,1,1,2,1,5,713,0,13,726,0,
27,237,32,252,47,2,1,2,0,2,1,4,580,0,10,590,0,
28,233,37,288,9,0,1,2,0,0,4,0,574,0,1,575,0,
29,201,6,213,3,2,0,1,0,2,5,5,438,0,7,445,0,
30,266,60,532,12,2,2,1,1,2,11,1,890,0,11,901,0,
31,136,12,545,13,0,1,4,3,3,8,3,728,0,8,736,0,
32,307,12,413,4,1,1,0,2,0,3,2,745,0,5,750,0,
33,145,6,415,6,1,0,0,2,5,8,6,594,0,7,601,0,
34,160,20,526,18,1,1,0,0,5,4,3,738,0,5,743,0,
35,228,7,329,31,0,0,0,2,2,4,5,608,0,2,610,0,
36,303,8,486,6,1,1,2,2,1,1,0,811,0,3,814,0,
37,198,19,488,14,3,0,1,4,7,7,8,749,0,7,756,0,
38,256,10,581,2,0,1,3,1,1,7,8,870,0,8,878,0,
39,455,11,524,8,1,1,0,0,4,5,5,1014,0,4,1018,0,
40,151,5,221,3,2,0,2,2,2,3,4,395,0,5,400,0,
41,330,6,621,24,2,0,2,1,4,5,7,1002,0,11,1013,0,
42,178,2,362,3,1,1,0,3,1,3,4,558,0,3,561,0,
43,218,11,402,2,0,0,1,1,1,3,5,644,0,3,647,0,
44,289,10,217,14,1,0,1,1,0,4,1,538,0,7,545,0,
45,223,11,436,3,0,0,1,0,2,6,2,684,0,1,685,0,
46,342,9,665,10,1,2,1,0,6,6,5,1047,0,8,1055,0,
47,522,29,406,14,1,2,0,2,0,6,3,985,0,8,993,0,
48,455,15,426,6,0,0,1,2,3,6,3,917,0,8,925,0,
49,397,25,428,10,0,0,5,2,0,3,2,872,0,4,876,0,
50,243,30,424,8,2,0,1,1,5,2,4,720,0,10,730,0,
51,239,6,269,4,0,2,0,2,2,5,5,534,0,5,539,0,
52,323,15,316,5,1,2,1,0,1,2,3,669,0,7,676,0,
53,546,17,73,8,0,1,3,0,2,1,2,653,0,5,658,0,
54,444,14,22,5,0,0,0,0,0,1,1,487,0,3,490,0,
55,316,15,355,5,1,0,2,1,2,5,1,703,0,15,718,0,
56,221,15,450,6,1,2,15,2,5,6,1,724,0,18,742,0,
57,216,8,255,21,0,0,1,2,1,7,5,516,0,13,529,0,
58,475,20,433,8,2,3,0,1,3,4,5,954,0,11,965,0,
59,280,12,535,5,1,1,1,5,3,8,3,854,0,10,864,0,
60,204,25,351,18,1,2,1,1,4,6,5,618,0,10,628,0,
61,273,62,364,16,3,0,1,1,3,1,3,727,0,7,734,0,
62,197,35,630,8,0,1,2,3,5,4,4,889,0,10,899,0,
63,311,41,569,15,1,1,1,2,5,7,6,959,0,13,972,0,
64,399,19,418,8,1,0,0,0,1,6,5,857,0,6,863,0,
65,251,21,490,6,1,2,2,0,2,3,8,786,0,6,792,0,
66,297,8,236,9,0,1,1,1,2,3,2,560,0,8,568,0,
67,571,47,249,14,1,2,4,1,3,7,6,905,0,17,922,0,
68,189,12,314,7,0,1,0,0,2,5,0,530,0,5,535,0,
69,313,31,455,16,2,0,0,0,1,2,5,825,0,11,836,0,
70,413,17,375,7,0,2,1,1,6,2,4,828,0,9,837,0,
71,224,17,386,11,1,1,2,1,2,2,2,649,0,6,655,1,
72,251,37,416,6,1,0,2,1,4,1,3,722,0,10,732,0,
73,1020,21,23,2,0,0,0,1,0,0,2,1069,0,2,1071,0,
74,358,14,475,3,1,3,4,2,8,5,2,875,0,8,883,0,
75,835,13,27,2,1,0,0,0,0,0,1,879,0,1,880,0,
76,357,5,391,10,0,2,0,1,3,7,8,784,0,6,790,0,
77,159,15,553,20,0,0,0,1,1,3,2,754,0,4,758,0,
78,99,12,440,2,4,0,2,0,2,9,7,577,0,5,582,0,
79,282,9,561,26,3,2,1,0,8,14,4,910,0,14,924,0,
80,253,7,192,5,0,1,0,1,0,5,4,468,0,12,480,0,
81,270,12,287,2,1,0,1,1,3,5,5,587,0,3,590,0,
82,218,9,379,6,0,0,0,2,3,7,3,627,0,6,633,0,
83,274,7,471,17,0,1,2,2,2,6,6,788,0,5,793,0,
84,199,11,489,11,2,0,2,1,6,5,8,734,0,9,743,0,
85,628,16,67,2,0,0,0,0,0,1,0,714,0,0,714,0,
86,841,87,56,5,1,1,0,0,0,3,9,1003,0,24,1027,0,
87,679,40,324,20,0,1,0,0,0,3,3,1070,0,15,1085,0,
88,907,34,58,7,0,0,0,0,0,1,0,1007,0,3,1010,0,
89,378,18,474,22,2,0,2,3,7,7,4,917,0,12,929,0,
90,288,3,396,11,1,1,2,0,6,3,0,711,0,4,715,0,
91,189,6,551,10,0,0,2,1,3,5,0,767,0,2,769,0,
92,301,10,340,4,1,0,5,0,2,3,1,667,0,1,668,0,
93,199,7,362,2,2,1,3,0,1,4,1,582,0,9,591,0,
94,177,9,321,5,2,0,14,1,3,6,4,542,0,11,553,0,
95,457,12,497,16,1,2,3,2,8,16,1,1015,0,7,1022,0,
96,270,22,444,16,1,2,4,1,4,6,6,776,0,20,796,0,
97,643,17,149,8,0,0,2,0,1,2,4,826,0,4,830,0,
98,410,10,117,21,0,1,1,1,2,0,0,563,0,3,566,0,
99,399,30,554,8,2,1,3,0,3,5,2,1007,0,4,1011,0,
100,404,8,287,24,1,2,0,1,0,4,3,734,0,8,742,0,
101,449,13,544,8,2,1,1,1,6,7,10,1042,0,4,1046,0,
102,141,12,587,5,0,1,17,0,3,7,1,774,0,6,780,0,
103,275,18,430,5,1,2,1,1,3,5,6,747,0,8,755,0,
104,279,2,435,2,1,0,8,1,1,5,3,737,0,8,745,0,
105,168,11,354,3,1,0,1,2,0,7,4,551,0,4,555,0,
106,374,25,235,3,1,0,0,0,1,6,7,652,0,9,661,0,
107,191,8,343,7,1,0,6,2,2,2,2,564,0,8,572,0,
108,242,10,402,12,1,1,8,1,4,4,5,690,0,6,696,0,
109,356,20,174,10,0,2,23,1,6,2,1,595,0,9,604,0,
110,390,23,216,21,2,0,2,3,3,5,4,669,0,8,677,0,
111,194,7,343,8,0,0,0,2,5,8,3,570,0,5,575,0,
112,385,12,474,15,2,1,0,1,7,6,5,908,0,11,919,0,
113,684,23,254,24,0,3,1,1,6,2,3,1001,0,16,1017,0,
114,621,47,153,17,0,0,4,1,2,2,2,849,0,6,855,0,
115,593,50,107,12,0,1,4,0,3,3,5,778,0,20,798,0,
116,532,38,123,11,2,1,10,1,1,1,7,727,0,7,734,0,
117,497,16,318,4,0,1,7,2,1,4,3,853,0,9,862,0,
118,539,17,307,6,1,1,4,0,2,4,11,892,0,13,905,0,
119,250,30,741,15,1,3,5,2,7,8,5,1067,0,12,1079,0,
120,552,34,396,11,0,3,0,1,1,4,6,1008,0,7,1015,0,
121,609,41,303,2,1,0,23,0,2,7,3,991,0,8,999,0,
122,193,32,692,17,1,2,3,0,3,5,5,953,0,4,957,0,
123,274,13,202,5,1,2,1,2,3,3,4,510,0,8,518,0,
124,310,14,395,7,5,0,4,1,2,7,3,748,0,10,758,0,
125,262,8,392,9,0,2,3,1,4,4,5,690,0,10,700,0,
126,455,59,101,4,0,0,1,1,1,0,3,625,0,6,631,0,
127,293,22,275,6,1,0,2,0,3,5,9,616,0,8,624,0,
128,169,4,298,14,1,0,1,0,1,1,1,490,0,2,492,0,
129,564,25,304,15,0,0,12,1,4,2,2,929,0,7,936,0,
130,467,43,548,18,0,1,4,1,13,10,5,1110,0,19,1129,0,
131,531,61,75,19,0,0,1,0,0,1,1,689,0,5,694,0,
132,385,29,18,32,0,0,0,1,0,1,1,467,0,3,470,0,
133,350,56,92,31,0,1,3,0,0,3,6,542,0,11,553,0,
134,478,81,43,41,0,0,4,1,1,0,2,651,0,3,654,0,
135,167,12,374,10,3,2,10,1,5,10,4,598,0,12,610,0,
136,225,27,339,8,2,2,2,1,3,2,3,614,0,4,618,0,
137,712,48,15,24,0,0,1,0,1,0,1,802,0,4,806,0,
138,531,48,78,23,0,0,0,0,0,1,4,685,0,4,689,0,
139,650,39,61,32,0,1,0,1,1,4,10,799,0,12,811,0,
140,643,10,43,7,1,0,0,0,0,1,1,706,0,1,707,0,
141,645,37,116,4,0,0,0,1,0,1,1,805,0,2,807,0,
142,618,57,27,21,0,0,0,1,0,1,3,728,0,4,732,0,
143,430,41,16,20,0,0,0,0,0,1,2,510,0,4,514,0,
144,723,91,25,23,0,5,1,1,4,0,8,881,0,17,898,0,
145,457,26,62,13,1,0,0,0,2,0,2,563,0,2,565,0,
146,746,40,41,23,1,0,0,0,0,0,1,852,0,6,858,0,
147,439,22,31,20,1,9,0,1,0,1,2,526,0,6,532,0,
148,603,26,47,25,0,1,0,0,0,0,2,704,0,14,718,0,
149,514,31,135,17,1,1,1,1,4,1,1,707,0,3,710,0,
150,590,71,73,29,0,2,0,1,3,3,5,777,0,7,784,0,
151,384,15,326,7,0,0,2,0,1,5,4,744,0,10,754,0,
152,322,15,554,9,0,0,0,3,3,2,2,910,0,1,911,0,
153,127,23,691,13,1,1,5,1,1,4,2,869,0,3,872,0,
154,456,9,331,8,2,0,0,1,0,3,2,812,0,8,820,0,
155,336,6,367,7,0,0,1,0,2,4,1,724,0,5,729,0,
156,547,16,315,9,1,1,0,2,2,0,5,898,0,11,909,0,
157,680,36,203,2,0,2,0,1,0,3,1,928,0,6,934,0,
158,55.9,33,82,11,0,0,0,0,1,0,1,687,0,1,688,0,
159,654,24,47,21,0,0,2,1,0,2,0,751,0,9,760,0,
160,643,32,120,25,0,0,1,0,3,2,3,829,0,16,845,0,
161,567,17,75,7,0,0,0,1,0,1,0,668,0,2,670,0,
162,614,34,164,18,1,2,2,1,1,2,3,842,0,14,856,0,
163,307,25,700,4,1,1,1,0,1,7,2,1049,0,8,1057,0,
164,343,33,376,7,1,1,0,2,3,0,4,770,0,16,786,0,
165,436,16,227,26,0,0,0,0,2,1,4,712,0,7,719,0,
166,235,6,162,14,0,0,0,0,3,0,1,421,0,7,428,0,
167,647,29,59,39,0,0,0,0,1,1,1,777,0,16,793,0,
168,391,35,197,19,0,1,1,0,2,2,4,652,0,3,655,0,
169,149,17,512,5,2,1,1,2,5,8,3,705,0,8,713,0,
170,336,24,254,13,0,1,0,0,2,2,3,635,0,15,650,0,
171,306,17,630,7,1,1,0,1,2,6,4,975,0,12,987,0,
172,531,33,260,11,0,0,1,0,1,2,2,841,0,8,849,0,
173,695,20,391,14,3,0,2,1,5,2,5,1138,0,16,1154,0,
174,48,8,282,3,1,1,0,1,0,1,1,346,0,5,351,0,
175,119,37,411,21,2,0,1,0,0,1,0,592,0,4,596,0,
176,27,14,343,4,1,0,1,2,1,5,4,402,0,2,404,0,
177,211,39,499,18,1,1,1,2,3,4,4,783,0,9,792,0,
178,154,76,415,13,2,0,4,2,3,4,2,675,0,12,687,0,
179,91,51,289,9,0,0,2,2,1,0,0,445,0,7,452,0,
180,105,32,324,16,2,0,1,0,0,2,1,483,0,0,483,0,
181,92,49,354,14,0,0,4,0,2,1,2,518,0,2,520,0,
182,104,22,180,7,1,0,0,0,0,0,1,315,0,4,319,0,
183,130,36,486,15,0,0,9,0,1,1,2,680,0,9,689,0,
184,153,83,453,22,0,0,2,4,1,1,0,719,0,10,729,0,
185,90,37,316,16,1,2,0,0,0,0,0,462,0,8,470,0,
186,97,18,247,8,0,0,0,0,0,1,1,372,0,5,377,0,
187,89,25,429,13,0,2,1,0,0,0,1,560,0,3,563,0,
188,136,69,540,25,0,0,17,0,1,0,0,788,0,9,797,0,
189,150,28,535,27,2,0,1,1,0,0,0,744,0,2,746,0,
190,96,112,356,12,0,1,2,1,0,0,2,582,0,7,589,0,
191,103,67,304,12,0,1,6,2,1,1,2,499,0,8,507,0,
192,108,178,429,19,1,1,5,1,1,4,5,752,0,14,766,0,
193,88,61,323,19,1,0,4,2,1,0,0,499,0,18,517,0,
194,131,86,449,24,0,1,4,1,1,0,0,697,0,27,724,0,
195,122,49,563,26,2,1,10,0,5,3,1,782,0,15,797,0,
196,118,57,370,24,1,0,4,1,0,1,0,576,0,10,586,0,
197,94,44,291,21,0,0,0,3,0,0,1,454,0,5,459,0,
198,135,50,574,34,1,2,3,1,1,4,0,805,0,5,810,0,
199,174,30,293,17,0,0,2,1,1,0,0,518,0,2,520,0,
200,123,26,231,11,1,0,1,1,0,1,3,398,0,4,402,0,
201,160,43,681,20,1,0,4,0,1,3,1,914,0,4,918,0,
202,156,52,539,42,0,1,8,0,0,0,1,799,0,7,806,0,
203,107,39,371,25,0,0,2,1,0,0,0,545,0,8,553,0,
204,120,40,259,17,1,0,0,0,1,0,0,438,0,4,442,0,
205,105,51,379,29,1,1,2,3,1,0,1,573,0,12,585,0,
206,63,49,274,34,0,0,1,0,0,0,0,421,0,4,425,0,
207,86,43,296,31,1,0,0,2,0,2,1,462,0,5,467,0,
208,120,68,497,25,0,0,3,0,0,0,0,713,0,7,720,0,
209,72,51,256,8,0,0,0,0,0,0,0,387,0,5,392,0,
210,209,55,462,37,0,1,3,0,1,0,1,769,0,9,778,0,
211,100,47,325,18,0,0,2,1,0,0,0,493,0,4,497,0,
212,75,28,301,28,0,1,1,1,0,0,0,435,0,4,439,0,
213,74,37,283,14,0,0,0,1,1,1,0,411,0,4,415,0,
214,103,65,538,34,0,1,1,1,2,3,3,751,0,9,760,0,
215,109,47,629,15,0,1,2,1,1,1,5,811,0,10,821,0,
216,89,69,294,15,0,0,1,0,0,1,1,470,0,4,474,0,
217,74,53,300,23,0,0,0,0,0,1,0,451,0,4,455,0,
218,106,18,291,10,0,2,0,0,0,0,1,428,0,3,431,0,
219,131,46,406,26,0,0,7,1,0,0,0,617,0,8,625,0,
220,75,28,276,17,0,0,1,0,1,2,0,400,0,8,408,0,
221,119,39,547,19,0,0,0,0,1,3,1,729,0,8,737,0,
222,170,22,574,19,0,2,4,1,3,7,3,805,0,4,809,0,
223,87,44,605,36,0,1,2,0,2,3,0,780,0,6,786,0,
224,143,28,486,25,0,2,1,0,0,1,1,687,0,6,693,0,
225,292,30,266,33,0,1,3,0,0,1,3,629,0,8,637,0,
226,410,17,167,33,0,0,2,0,0,1,1,631,0,10,641,0,
227,91,23,446,20,0,1,1,0,1,1,1,585,0,6,591,0,
228,95,30,361,13,1,0,1,0,0,4,0,505,0,4,509,0,
229,298,12,154,6,0,0,1,1,0,4,1,477,0,7,484,0,
230,143,17,530,12,2,1,0,0,2,1,1,709,0,2,711,0,
231,93,26,530,9,3,0,1,0,2,5,3,672,0,3,675,0,
232,215,40,431,12,2,2,0,0,1,1,2,706,0,9,715,0,
233,98,22,367,5,1,1,2,1,1,1,0,499,0,1,500,0,
234,369,62,304,29,1,1,4,2,3,2,1,778,0,7,785,0,
235,209,26,466,15,0,2,2,1,0,1,1,723,0,3,726,0,
236,217,19,449,12,0,0,0,2,1,2,0,702,0,4,706,0,
237,123,19,530,13,1,0,0,0,1,2,0,689,0,4,693,0,
238,29,1,515,10,0,0,2,1,0,0,0,558,0,3,561,0,
239,112,17,462,16,0,1,5,0,1,1,1,616,0,5,621,0,
240,110,21,445,23,2,0,3,2,2,4,4,616,0,7,623,0,
241,173,21,528,16,0,0,1,0,0,2,1,742,0,6,748,0,
242,89,14,280,17,1,0,0,0,1,2,0,404,0,3,407,0,
243,129,42,289,24,0,0,3,0,0,0,0,487,0,10,497,0,
244,170,5,393,29,1,1,0,2,0,1,1,603,0,5,608,0,
245,137,3,567,23,1,0,2,3,2,4,0,742,0,7,749,0,
246,290,14,342,25,1,4,1,1,1,1,2,682,0,7,689,0,
247,234,15,545,11,1,1,0,0,4,11,3,825,0,8,833,0,
248,176,19,343,10,1,0,0,0,0,1,3,553,0,5,558,0,
249,73,15,445,13,0,2,0,0,0,1,1,550,0,4,554,0,
250,109,30,473,10,1,0,2,1,0,2,2,630,0,5,635,0,
251,151,12,669,17,2,0,1,3,1,2,4,862,0,7,869,0,
252,167,27,434,16,0,0,1,1,0,0,1,647,0,3,650,0,
253,129,7,356,10,1,0,0,0,0,1,0,504,0,6,510,0,
254,120,13,376,15,0,0,3,2,0,0,0,529,0,6,535,0,
255,70,8,367,17,0,1,0,0,2,4,3,472,0,1,473,0,
1,283,4,400,5,4,0,1,10,2,10,9,728,0,15,743,0,
2,215,15,472,8,1,2,1,6,4,15,6,745,0,10,755,0,
3,203,15,381,22,5,1,2,1,0,5,5,640,0,10,650,0,
4,179,6,469,6,0,0,3,4,5,5,3,680,0,10,690,0,
5,306,12,547,12,2,0,1,4,3,6,4,897,0,6,903,0,
6,290,21,555,14,1,2,4,2,3,5,12,909,0,8,917,0,
7,187,31,486,6,2,5,5,3,5,6,2,738,0,6,744,0,
8,267,11,386,5,0,0,2,2,5,1,2,681,0,9,690,0,
9,196,9,316,13,1,1,2,0,3,1,3,545,0,4,549,0,
10,256,11,365,10,2,3,27,5,4,2,2,687,0,13,700,0,
11,188,11,377,10,1,1,23,4,4,5,2,626,0,9,635,0,
12,310,50,457,9,1,4,2,1,4,2,2,842,0,5,847,0,
13,450,18,478,13,0,2,3,3,7,7,10,991,0,17,1008,0,
14,385,10,573,13,2,1,1,2,2,4,7,1000,0,13,1013,0,
15,353,13,262,12,2,1,10,1,1,3,3,661,0,7,668,0,
16,333,11,331,7,3,1,14,2,3,1,2,708,0,6,714,0,
17,342,26,361,5,2,2,3,6,2,3,7,759,0,11,770,0,
18,310,22,568,8,3,1,2,1,4,3,0,922,0,3,925,0,
19,330,12,588,16,2,3,2,1,11,8,17,990,0,20,1010,0,
20,417,12,483,12,2,1,0,1,2,8,11,949,0,9,958,0,
21,236,19,181,10,1,1,2,0,3,2,4,459,0,9,468,0,
22,370,26,254,18,2,0,1,1,3,6,6,687,0,11,698,0,
23,207,72,550,12,6,1,1,4,3,18,6,880,0,19,899,0,
24,602,14,511,18,1,1,0,4,2,6,4,1163,0,12,1175,0,
25,505,4,577,7,4,2,1,2,4,6,5,1117,0,24,1141,1,
26,464,14,629,16,0,1,2,3,3,8,6,1146,0,11,1157,0,
27,490,8,381,5,0,1,0,0,3,4,1,893,0,6,899,0,
28,530,12,369,5,1,0,0,2,2,4,9,934,0,20,954,0,
29,477,12,618,9,2,8,2,4,4,5,8,1149,0,17,1166,0,
30,575,13,365,6,4,2,3,0,3,10,7,988,0,8,996,0,
31,339,14,564,15,2,2,4,4,4,4,4,956,0,16,972,0,
32,450,18,376,10,4,3,3,3,4,4,8,883,0,14,897,0,
33,471,16,477,6,2,1,1,1,1,5,3,984,0,5,989,0,
34,462,13,443,16,3,3,2,5,7,10,3,967,0,16,983,0,
35,211,3,178,2,1,0,0,1,0,1,2,399,0,3,402,0,
36,572,14,280,8,3,0,2,0,3,3,6,891,0,10,901,0,
37,279,4,365,6,1,1,2,1,1,3,2,665,0,3,668,0,
38,457,10,544,16,2,0,2,5,3,6,5,1050,0,10,1060,0,
39,249,16,518,15,2,1,2,1,0,2,10,816,0,14,830,0,
40,410,32,487,18,1,1,4,1,1,5,4,964,0,11,975,0,
41,329,13,384,15,4,0,3,1,5,6,10,770,0,12,782,0,
42,105,9,284,6,1,1,1,0,1,2,2,412,0,4,416,0,
43,252,10,558,8,3,0,0,3,6,3,3,846,0,7,853,0,
44,212,10,286,3,1,0,1,0,1,0,4,518,0,4,522,0,
45,345,16,605,14,1,3,0,2,4,5,12,1007,0,7,1014,0,
46,611,30,308,17,3,5,4,1,7,1,4,991,0,14,1005,0,
47,296,12,412,4,0,1,2,1,2,4,0,734,0,2,736,0,
48,287,16,568,11,2,3,2,4,7,8,6,914,0,9,923,0,
49,287,19,722,11,2,3,3,0,7,12,13,1079,0,26,1105,0,
50,234,12,815,13,2,5,0,2,4,7,7,1101,0,6,1107,0,
51,255,9,490,15,3,2,3,6,1,7,5,796,0,7,803,0,
52,261,5,319,14,0,5,3,6,5,5,8,631,0,12,643,0,
53,195,3,357,12,1,2,1,1,2,6,2,582,0,7,589,0,
54,303,9,484,11,1,0,3,0,1,2,1,815,0,9,824,0,
55,259,10,358,5,3,1,0,1,2,4,4,647,0,6,653,0,
56,191,15,527,8,16,3,3,1,3,4,3,774,0,10,784,0,
57,276,20,501,19,6,1,1,2,3,3,5,837,0,9,846,0,
58,295,17,533,7,3,2,2,0,3,2,1,865,0,3,868,0,
59,195,15,357,5,10,3,3,1,3,16,4,612,0,5,617,0,
60,188,1 1,246,7,0,0,0,1,2,2,4,461,0,2,463,0,
61,234,11,445,4,2,1,3,1,0,4,4,709,0,6,715,0,
62,415,30,337,19,1,4,3,2,1,3,2,817,0,8,825,0,
63,262,17,448,9,1,2,0,1,4,2,8,754,0,7,761,0,
64,171,20,340,7,1,0,2,0,2,8,2,553,0,6,559,0,
65,263,15,576,22,2,2,0,2,2,2,3,889,0,11,900,0,
66,175,14,422,3,1,0,1,1,1,0,4,622,0,3,625,0,
67,315,7,387,7,4,2,1,6,8,12,5,754,0,19,773,0,
68,200,16,797,22,3,4,3,5,5,5,5,1065,0,8,1073,0,
69,197,7,419,7,0,0,3,0,1,4,5,643,0,7,650,0,
70,275,14,640,11,2,2,3,2,4,5,8,966,0,13,979,0,
71,349,19,463,20,5,0,1,2,3,4,7,873,0,12,885,0,
72,350,34,423,18,1,1,3,2,4,6,8,850,0,8,858,0,
73,449,48,324,10,2,7,3,1,4,7,9,864,0,13,877,1,
74,333,25,633,12,0,1,3,1,9,5,9,1031,0,12,1043,1,
75,587,22,339,27,3,2,1,2,2,4,8,997,0,17,1014,0,
76,309,53,145,7,0,1,0,1,3,2,3,524,0,15,539,0,
77,343,31,371,12,2,1,3,0,4,8,5,780,0,12,792,0,
78,174,11,372,5,0,0,0,1,1,4,3,571,0,7,578,0,
79,159,22,427,11,2,1,0,1,1,2,4,630,0,2,632,0,
80,325,30,312,16,2,0,3,0,3,6,6,703,0,5,708,0,
81,239,30,359,4,5,1,6,1,0,2,2,649,0,3,652,0,
82,193,10,399,8,0,0,1,2,1,4,0,618,0,3,621,0,
83,375,30,254,8,4,0,2,1,3,0,2,679,0,7,686,0,
84,210,21,529,12,2,2,1,3,2,6,2,790,0,13,803,0,
85,237,21,424,11,5,5,0,1,7,7,5,723,0,7,730,0,
86,257,13,418,12,4,1,0,1,5,2,2,715,0,5,720,0,
87,285,23,416,1 1,1,0,1,0,4,4,5,750,0,9,759,0,
88,173,12,400,4,2,0,2,1,3,3,2,602,0,0,602,0,
89,293,15,340,4,2,1,0,4,4,1,2,666,0,9,675,0,
90,256,22,466,12,5,0,4,2,5,5,5,782,0,15,797,0,
91,201,60,704,24,4,5,6,0,4,12,11,1031,0,12,1043,0,
92,208,41,312,8,1,1,1,2,1,3,3,581,0,6,587,0,
93,161,37,371,11,1,2,1,1,2,4,5,596,0,4,600,0,
94,259,49,660,18,6,0,5,3,5,2,5,1012,0,5,1017,0,
95,328,20,232,8,0,0,0,0,2,4,2,596,0,6,602,0,
96,498,17,76,29,0,1,2,1,4,2,5,635,0,6,641,0,
97,499,43,32,14,0,0,0,3,2,3,2,598,0,12,610,0,
98,599,49,151,21,3,0,1,1,2,2,4,833,0,11,844,0,
99,392,127,156,27,2,0,1,2,4,1,3,715,0,4,719,0,
100,497,54,469,27,2,1,3,4,1,6,4,1068,0,12,1080,0,
101,675,25,156,30,2,1,0,1,0,4,4,898,0,9,907,[),
102,337,35,256,8,4,2,0,0,1,6,5,654,0,7,661,0,
103,673,96,330,19,3,0,6,0,3,4,5,1139,0,9,1148,0,
104,402,21,474,26,3,1,2,2,1,5,4,941,0,2,943,0,
105,111,38,763,)3,5,1,6,1,6,8,5,957,0,4,961,0,
106,244,46,803,22,2,4,2,2,3,1,5,1134,0,6,114U,0,
107,329,40,761,16,3,5,0,1,7,7,4,1173,0,15,1188,0,
108,501,30,393,7,0,2,1,2,3,4,1,944,0,13,957,0,
109,155,21,540,17,2,2,5,5,1,8,3,759,0,13,772,0,
110,134,16,436,9,3,0,1,2,4,1,2,608,0,6,614,0,
111,220,41,415,25,2,1,5,1,5,5,0,720,0,11,731,0,
112,113,22,359,11,1,1,0,0,2,3,1,513,0,6,519,0,
113,289,28,384,16,1,1,6,2,4,7,6,744,0,5,749,0,
114,190,21,480,15,1,1,3,2,3,4,9,729,0,8,737,0,
115,218,28,336,15,2,2,1,2,1,2,3,610,0,7,617,0,
116,267,30,533,20,14,4,4,3,3,7,4,889,0,11,900,0,
117,134,20,434,2,1,2,1,3,1,2,6,606,0,1,607,0,
118,292,24,271,7,1,1,3,1,3,4,1,608,0,9,617,0,
119,286,66,297,13,5,3,9,1,6,2,3,691,0,7,698,0,
120,471,3,100,11,0,1,0,0,1,1,1,589,0,1,590,0,
121,179,23,411,6,1,1,0,0,3,2,4,630,0,1,631,0,
122,693,17,254,23,2,0,1,1,3,2,2,998,0,8,1006,0,
123,275,36,554,11,2,0,2,3,3,7,6,899,0,15,914,0,
124,565,80,487,10,1,4,1,2,3,6,7,1166,0,6,1172,0,
125,529,21,487,38,1,1,4,2,3,4,4,1094,0,11,1105,0,
126,369,24,208,162,2,1,3,0,2,2,1,774,0,5,779,0,
127,300,24,585,18,3,1,1,3,5,6,7,953,0,12,965,0,
128,185,7,237,3,0,1,2,1,1,3,4,444,0,6,450,0,
129,187,24,675,23,3,1,5,1,8,6,5,938,0,18,953,0,
130,162,47,369,6,1,1,3,1,3,1,2,596,0,6,602,0,
131,296,17,512,10,1,1,0,4,3,6,6,856,0,12,868,0,
132,383,8,290,13,0,2,1,1,8,7,4,717,0,9,726,0,
133,431,9,84,12,2,0,0,0,0,0,2,540,0,5,545,0,
134,370,25,403,11,2,2,1,3,3,3,3,826,0,7,833,0,
135,301,27,587,16,6,5,4,2,5,7,15,975,0,13,988,0,
136,475,30,238,13,0,2,7,3,6,4,6,784,0,9,793,0,
137,258,12,313,12,1,2,1,0,3,6,1,609,0,11,620,0,
138,152,7,260,4,1,0,0,2,2,3,2,433,0,8,441,0,
139,591,42,57,17,0,0,1,0,0,1,3,712,0,8,720,0,
140,384,23,356,5,0,4,0,15,1,4,7,799,0,15,814,0,
141,327,16,538,16,1,3,8,2,4,9,5,929,0,17,946,0,
142,286,16,589,13,5,4,10,4,7,13,6,953,0,10,963,0,
143,618,14,195,5,1,0,1,1,2,6,3,846,0,9,855,0,
144,226,13,400,6,2,0,1,1,4,7,2,662,0,5,667,0,
145,892,14,91,14,1,2,1,0,1,6,3,1025,0,10,1035,0,
146,315,1 1,603,14,2,1,0,1,6,6,3,962,0,12,974,0,
147,419,10,390,9,2,1,1,0,9,15,14,870,0,12,882,0,
148,680,8,27,2,0,0,1,0,0,0,0,718,0,1,719,0,
149,289,6,272,9,0,0,0,1,1,4,5,587,0,3,590,0,
150,240,2,339,21,0,0,1,2,3,5,3,616,0,4,620,0,
151,151,10,343,9,3,1,0,1,2,3,0,523,0,5,528,0,
152,209,12,769,21,1,6,5,5,7,12,3,1050,0,2,1052,0,
153,134,10,183,5,1,0,1,0,3,3,1,341,0,0,341,0,
154,170,8,402,7,0,1,2,0,2,4,1,597,0,2,599,0,
155,262,13,621,12,6,2,5,3,4,4,11,943,0,18,961,0,
156,151,23,308,3,2,1,1,1,0,2,2,494,0,3,497,0,
157,191,10,433,8,2,1,4,1,3,6,3,662,0,3,665,0,
158,332,9,259,17,2,2,0,2,5,5,1,634,0,9,643,0,
159,358,29,194,6,2,3,2,3,1,4,2,604,0,9,613,0,
160,704,23,94,20,0,2,0,0,2,0,1,846,0,1,847,0,
161,552,39,91,17,1,0,0,0,0,1,2,703,0,3,706,0,
162,268,18,608,16,2,1,3,4,2,10,7,939,0,9,948,0,
163,159,6,258,4,1,0,1,1,4,5,2,441,0,3,444,0,
164,223,19,702,14,5,2,2,5,5,3,5,985,0,6,991,0,
165,234,7,560,19,2,1,3,1,4,6,6,843,0,6,849,0,
166,403,17,676,9,1,6,1,2,9,10,19,1153,0,23,1176,0,
167,263,9,485,7,2,3,3,0,5,11,2,790,0,8,798,0,
168,204,10,258,4,0,2,2,1,1,2,1,485,0,2,487,0,
169,179,9,404,10,19,1,0,2,1,4,7,636,0,12,648,0,
170,322,10,565,4,3,1,1,3,3,6,5,923,0,5,928,0,
171,252,17,636,14,3,2,1,2,4,8,5,944,0,7,951,0,
172,265,11,496,7,0,2,1,2,2,5,2,793,0,4,797,0,
173,260,15,279,10,4,1,0,1,2,3,2,577,0,3,580,0,
174,154,5,418,11,3,3,1,1,5,9,3,613,0,6,619,0,
175,193,10,436,11,3,0,2,1,3,5,2,666,0,3,669,0,
176,166,10,375,11,2,3,6,2,7,3,4,589,0,4,593,0,
177,158,9,428,4,1,4,3,5,4,4,3,623,0,7,630,0,
178,166,9,359,10,2,1,1,1,2,8,10,569,0,6,575,0,
179,551,11,419,11,1,1,1,0,4,5,8,1012,0,11,1023,0,
180,335,8,319,5,1,2,2,1,3,2,2,680,0,12,692,0,
181,439,12,551,12,6,1,6,2,7,11,10,1057,0,19,1076,0,
182,254,13,529,4,1,0,1,5,2,10,10,829,0,7,836,0,
183,382,10,426,6,0,0,1,0,3,1,0,829,0,2,831,0,
184,210,8,441,9,3,2,2,3,3,6,6,693,0,7,700,0,
185,126,6,375,11,1,2,2,3,4,7,6,543,0,7,550,1,
186,159,13,367,6,2,0,1,2,1,5,3,559,0,4,563,0,
187,298,40,483,15,1,3,3,6,9,3,5,866,0,10,876,0,
188,217,33,543,11,3,2,2,2,2,3,6,824,0,2,826,0,
189,154,3,278,4,0,0,3,1,0,6,2,451,0,10,461,0,
190,164,10,320,4,2,0,2,1,2,1,0,506,0,1,507,0,
191,248,8,395,8,3,1,3,4,3,6,4,683,0,8,691,0,
192,266,13,491,6,1,1,0,0,1,7,4,790,0,3,793,0,
193,219,8,401,12,0,3,0,1,5,8,2,659,0,12,671,0,
194,301,22,406,10,1,2,0,0,3,6,2,753,0,8,761,1,
195,297,17,453,4,1,2,1,1,2,7,8,793,0,18,811,0,
196,506,27,472,17,1,2,3,1,2,1,6,1038,0,4,1042,0,
197,214,21,566,16,1,5,5,2,7,9,5,851,0,8,859,0,
198,215,14,281,2,4,0,1,1,4,1,11,534,0,10,544,0,
199,411,17,472,6,2,0,1,1,2,5,1,918,0,5,923,0,
200,439,22,430,13,1,1,3,2,2,3,2,918,0,4,922,0,
201,267,21,413,11,1,0,3,1,6,4,3,730,0,13,743,0,
202,219,8,392,10,2,0,0,3,4,4,6,648,0,6,654,0,
203,489,19,413,12,1,2,2,2,3,7,1,951,0,6,957,0,
204,560,19,390,6,2,3,0,0,3,1,5,989,0,6,995,0,
205,251,19,289,5,1,0,3,1,3,1,2,575,0,4,579,0,
206,328,19,524,6,2,0,2,3,6,4,10,904,0,10,914,0,
207,322,22,425,7,3,0,0,6,0,6,4,795,0,9,804,0,
208,315,18,580,9,1,2,2,3,8,6,7,951,0,13,964,0,
209,314,21,454,4,0,2,4,2,4,8,4,817,0,11,828,0,
210,161,5,210,2,0,0,1,0,0,1,0,380,0,4,384,0,
211,319,51,379,13,2,0,0,5,3,2,2,776,0,7,783,0,
212,451,110,23,9,1,4,1,2,3,0,2,606,0,2,608,0,
213,200,1,121,1,0,0,1,0,0,1,0,325,0,3,328,0,
214,236,17,297,8,2,2,1,2,2,4,5,576,0,3,579,0,
215,409,32,292,10,3,3,1,1,3,2,9,765,0,7,772,0,
216,651,69,121,12,1,3,1,3,7,4,7,879,0,33,912,0,
217,676,101,77,22,0,0,2,1,3,2,4,888,0,7,895,0,
218,504,97,300,19,1,2,1,2,1,4,3,934,0,13,947,0,
219,383,34,348,8,3,5,0,0,1,4,6,792,0,11,803,0,
220,207,9,373,6,0,3,2,3,2,4,2,611,0,3,614,0,
221,212,29,258,11,3,1,1,2,5,8,5,535,0,9,544,0,
222,119,20,434,5,3,2,3,5,1,7,4,603,0,3,606,0,
223,201,32,260,5,0,1,0,3,3,4,3,512,0,7,519,0,
224,360,42,432,20,0,1,2,3,3,1,4,868,0,13,881,0,
225,448,36,454,32,1,1,3,2,1,5,6,989,0,8,997,0,
226,114,35,516,19,1,2,1,3,2,7,4,704,0,4,708,0,
227,222,18,362,6,2,1,1,2,3,5,4,626,0,11,637,0,
228,92,30,483,13,2,2,2,1,4,2,4,635,0,6,641,0,
229,421,37,202,6,0,1,0,2,1,2,2,674,0,2,676,0,
230,365,39,410,11,2,2,2,5,5,7,2,850,0,8,858,0,
231,222,28,314,17,1,2,3,0,0,2,5,594,0,4,598,0,
232,370,30,624,26,4,8,4,6,7,13,12,1104,0,22,1126,0,
233,147,19,408,5,0,1,3,4,4,4,7,602,0,8,610,0,
234,203,10,379,14,3,0,0,3,4,7,6,629,0,6,635,0,
235,330,20,519,23,4,2,3,1,3,7,7,919,0,13,932,0,
236,421,17,278,20,2,0,1,2,7,3,5,756,0,11,767,0,
237,311,38,340,11,1,1,0,0,3,4,4,713,0,4,717,0,
238,247,16,244,4,0,1,3,2,3,3,5,528,0,5,533,0,
239,500,69,326,17,7,3,1,3,6,7,8,947,0,27,974,0,
240,281,17,497,15,7,2,2,2,1,5,2,831,0,6,837,0,
241,348,20,438,13,1,0,0,2,3,4,5,834,0,12,846,0,
242,262,29,266,8,1,0,0,0,1,0,2,569,0,2,571,0,
243,291,36,362,5,0,0,2,1,3,4,4,708,0,6,714,0,
244,569,13,101,5,1,2,0,0,1,1,3,696,0,5,701,0,
245,547,8,241,11,0,0,1,1,0,6,2,817,0,5,822,0,
246,188,9,256,7,0,0,1,0,1,1,1,464,0,0,464,0,
247,914,19,131,13,0,0,0,1,4,3,1,1086,0,7,1093,0,
248,582,5,27,1,0,0,0,0,0,0,0,615,0,1,616,0,
249,760,27,153,4,1,1,1,2,2,1,3,955,0,3,958,0,
250,527,35,269,20,1,3,1,0,1,0,5,862,0,7,869,0,
251,668,19,22,16,1,0,0,0,2,0,0,728,0,9,737,0,
252,625,5,72,24,1,1,1,0,0,1,3,733,0,5,738,0,
253,718,29,282,23,2,3,1,0,3,2,4,1067,0,9,1076,0,
254,222,17,542,4,2,1,1,0,1,2,3,795,0,1,796,0,
255,313,18,339,10,3,2,3,3,3,3,5,702,0,14,716,0,
256,685,38,30,58,0,0,1,1,4,3,5,825,0,12,837,0,
257,365,26,484,17,4,1,0,3,3,10,8,921,0,13,934,1,
258,368,16,411,9,0,2,2,0,5,5,3,821,0,7,828,0,
259,187,23,624,16,1,4,3,0,8,10,11,887,0,9,896,0,
260,596,4,11,0,0,0,0,0,0,0,0,611,0,0,611,0,
261,239,7,513,14,1,0,2,3,1,5,9,794,0,12,806,0,
262,311,12,323,5,1,1,1,0,2,1,1,658,0,9,667,0,
263,989,13,78,7,0,2,1,0,2,2,7,1101,0,20,1121,0,
264,981,35,75,23,2,1,1,1,1,0,5,1125,0,11,1136,0,
265,960,10,66,15,0,2,1,2,0,2,4,1062,0,3,1065,0,
266,1035,9,9,2,0,0,0,0,0,0,0,1055,0,0,1055,0,
267,733,7,6,4,0,0,0,0,0,2,0,752,0,2,754,0,
268,429,11,13,12,0,0,0,1,0,0,0,466,0,10,476,0,
269,441,24,504,15,2,2,2,3,1,2,2,998,0,5,1003,0,
270,197,6,260,9,0,1,0,0,1,0,3,477,0,5,482,0,
271,780,35,17,16,0,0,0,0,1,1,1,851,0,5,856,0,
272,628,14,209,10,0,1,0,0,2,2,3,869,0,5,874,0,
273,1052,13,34,8,1,0,1,0,1,1,1,1112,0,11,1123,0,
274,1128,5,10,9,0,0,0,1,0,0,1,1154,0,2,1156,0,
275,305,6,344,8,1,0,0,0,4,5,5,678,0,8,686,0,
276,590,11,133,9,0,0,0,0,1,0,4,748,0,6,754,0,
277,606,23,148,24,3,0,1,0,3,0,1,809,0,5,814,0,
278,645,23,336,19,3,3,1,1,3,12,6,1052,0,23,1075,0,
279,890,24,75,9,1,0,0,0,1,2,1,1003,0,18,1021,0,
280,828,15,64,6,0,0,1,1,0,1,3,919,0,10,929 1 /,0,
281,1036,15,12,5,0,0,0,0,0,2,2,1072,0,1,1073,0,
282,601,5,22,5,0,0,0,0,0,0,1,634,0,8,642,0,
283,668,17,26,14,0,0,0,0,1,0,2,728,0,4,732,0,
284,673,33,36,30,0,0,0,0,1,2,3,778,0,8,786,0,
285,571,13,211,8,0,0,1,0,5,0,5,814,0,15,829,0,
286,523,85,212,17,0,2,1,3,5,4,8,860,0,12,872,0,
287,325,53,478,18,0,1,,1,1,6,6,892,0,8,900,0,
288,468,8,130,3,0,1,1,1,2,1,3,618,0,3,621,0,
289,656,36,22,11,0,1,1,0,1,0,1,729,0,10,739,0,
290,578,11,13,5,0,0,,0,0,0,1,608,0,0,608,0,
291,670,20,48,6,0,0,1,0,0,0,2,747,0,4,751,0,
292,214,117,345,13,2,3,1,1,6,8,8,718,0,8,726,0,
293,228,14,199,3,1,0,0,0,1,2,0,448,0,10,458,0,
294,155,31,355,10,2,1,0,3,0,9,7,573,0,12,585 /,0,
295,575,44,26,19,0,0,3,0,2,3,1,673,0,10,683,0,
296,741,4,26,11,0,0,1,0,0,1,2,786,0,3,789,0,
297,577,9,24,2,0,0,0,0,1,0,2,615,0,2,617,0,
298,564,119,112,13,0,2,2,1,6,8,3,830,0,16,846,0,
299,370,189,51,6,0,0,1,0,2,3,2,624,0,16,640,0,
300,592,151,211,12,0,1,1,2,6,1,3,980,0,12,992,0,
301,153,21,729,17,1,0,3,1,7,29,6,967,0,19,986,0,
1,380,18,439,9,2,3,1,2,5,2,7,868,0,19,887,0,
2,675,16,249,8,0,0,0,0,0,2,3,953,0,15,968,0,
3,969,8,13,6,1,0,0,0,0,0,1,998,0,9,1007,0,
4,510,11,241,5,1,0,0,2,1,4,5,780,0,9,789,0,
5,296,1,45,0,0,0,0,0,0,0,1,343,0,11,354,0,
6,351,7,35,7,0,0,0,1,2,0,1,404,0,1,405,0,
7,820,49,110,10,1,0,1,0,5,4,0,1000,0,22,1022,0,
8,672,19,275,5,1,1,1,4,3,6,9,996,0,34,1030,0,
9,200,3,140,4,0,0,1,0,0,1,2,351,0,4,355,0,
10,383,4,220,5,0,1,0,1,7,2,7,630,0,14,644,0,
11,300,6,203,7,0,2,1,1,2,3,0,525,0,3,528,0,
12,359,6,114,3,2,1,2,1,1,1,6,496,0,6,502,0,
13,436,5,199,3,1,0,1,0,0,2,3,650,0,15,665,0,
14,683,1,5,0,0,0,0,0,0,0,0,689,0,0,689,0,
15,705,0,0,0,0,0,0,0,0,0,0,708,0,0,705,0,
16,980,0,6,1,0,0,0,0,0,0,0,987,0,0,987,0,
17,590,3,101,1,0,1,0,0,0,0,1,697,0,2,699,0,
18,807,15,142,10,0,2,3,1,1,1,2,984,0,6,990,0,
19,400,5,297,3,0,0,1,2,2,3,2,715,0,10,725,0,
20,546,30,484,14,3,2,0,0,3,2,9,1093,0,16,1109,0,
21,471,14,382,13,1,6,2,8,8,17,23,945,0,29,974,0,
22,190,3,234,8,0,0,1,0,3,1,0,440,0,5,445,0,
23,389,10,196,6,0,0,1,0,0,1,4,607,0,5,612,0,
24,324,13,418,6,2,0,0,1,4,9,5,782,0,10,792,0,
25,340,8,211,6,0,0,2,0,1,3,2,573,0,7,580,0,
26,963,4,61,10,1,0,2,0,0,0,2,1043,0,5,1048,0,
27,466,13,530,16,5,2,13,3,10,3,7,1068,0,13,1081,0,
28,256,5,238,6,0,2,0,1,1,4,3,516,0,7,523,0,
29,250,7,272,5,1,3,2,0,2,0,3,545,0,9,554,0,
30,569,10,234,7,0,0,4,1,2,1,9,837,0,12,849,0,
31,368,13,253,2,0,1,2,0,1,4,2,646,0,1,647,0,
32,308,13,413,13,3,0,1,0,2,3,1,757,0,4,761,0,
33,258,6,177,1,1,0,1,2,2,2,0,450,0,6,456,0,
34,508,10,233,11,2,0,4,1,3,2,3,777,0,9,786,0,
35,482,8,288,6,0,3,5,0,1,5,5,803,0,5,808,0,
36,798,5,27,10,1,0,0,1,0,1,2,845,0,4,849,0,
37,579,7,248,22,2,1,5,1,1,2,7,875,0,14,889,0,
38,299,0,215,7,1,1,0,0,1,2,3,529,0,7,536,0,
39,278,4,471,6,2,1,4,3,3,3,3,778,0,10,788,0,
40,163,1,398,10,1,0,2,2,1,3,2,583,0,3,586,0,
41,203,6,294,1,0,1,0,0,3,0,1,509,0,1,510,0,
42,232,4,488,4,0,1,0,1,4,2,5,741,0,7,748,0,
43,208,1,295,2,0,1,0,0,2,4,0,513,0,1,514,0,
44,983,3,3,1,0,0,0,0,0,0,0,990,0,0,990,0,
45,1055,13,17,6,2,0,0,0,0,0,1,1094,0,1,1095,0,
46,704,2,34,0,1,0,0,0,0,1,1,743,0,2,745,0,
47,360,4,224,3,0,0,0,1,3,1,0,596,0,1,597,0,
48,904,3,103,1,0,0,0,0,0,1,1,1013,0,3,1016,0,
49,541,12,474,6,1,2,0,0,8,4,10,1058,0,16,1074,0,
50,773,7,145,2,2,0,2,0,0,1,1,933,0,7,940,0,
51,416,19,368,15,2,5,5,3,7,5,5,850,0,12,862,0,
52,654,7,382,7,0,1,0,0,3,3,3,1060,0,1,1061,0,
53,472,7,306,7,2,0,0,0,4,5,4,807,0,15,822,0,
54,619,4,113,2,0,0,0,0,2,1,5,746,0,6,752,0,
55,797,11,168,7,1,0,1,0,4,3,4,996,0,13,1009,0,
56,317,10,274,4,0,0,0,2,3,3,6,619,0,13,632,0,
57,484,9,296,12,1,0,2,1,0,1,6,812,0,8,820,0,
58,543,13,335,9,1,1,1,2,1,2,3,911,0,4,915,0,
59,349,8,217,8,0,1,0,0,2,1,5,591,0,4,595,0,
60,525,9,277,5,1,1,0,1,1,0,4,824,0,2,826,0,
61,467,11,342,13,0,0,1,2,5,5,9,855,0,15,870,0,
62,599,11,165,12,0,1,1,0,3,2,4,798,0,5,803,0,
63,602,17,223,4,0,0,2,0,3,1,1,853,0,10,863,0,
64,425,9,175,6,1,1,1,1,1,0,5,625,0,9,634,0,
65,549,16,369,7,0,0,1,0,0,1,1,944,0,4,948,0,
66,246,12,353,2,0,0,0,2,1,1,5,622,0,5,627,0,
67,325,10,265,9,1,0,0,3,1,3,4,621,0,5,626,0,
68,426,5,334,5,1,0,1,0,1,2,1,776,0,4,780,0,
69,411,7,69,3,0,1,0,1,0,1,4,497,0,6,503,0,
70,680,9,345,6,2,1,1,0,4,2,3,1053,0,10,1063,0,
71,436,6,101,2,0,0,0,0,1,0,1,547,0,1,548,0,
72,309,3,196,9,0,0,0,1,2,2,2,524,0,7,531,0,
73,540,6,232,11,0,0,0,1,2,4,3,799,0,5,804,0,
74,467,20,35,12,0,0,0,0,2,1,4,541,0,3,544,0,
75,615,13,241,17,0,1,4,1,4,4,2,902,0,11,913,0,
76,368,6,227,11,0,),0,0,1,1,1,616,0,2,618,0,
77,297,10,543,18,3,1,0,3,4,6,0,885,0,20,905,0,
78,495,17,53,11,0,0,2,0,0,0,2,580,0,3,583,0,
79,510,21,345,16,8,1,0,1,6,2,8,918,0,11,929,0,
80,553,15,254,6,2,0,1,1,3,3,5,843,0,18,861,0,
81,456,11,386,11,4,0,2,3,3,0,10,886,0,17,903,0,
82,762,15,44,10,2,1,3,0,1,0,2,840,0,5,845,0,
83,624,12,23,11,1,1,1,0,1,1,3,678,0,8,686,0,
84,333,30,126,5,2,1,0,1,4,1,1,504,0,8,512,0,
85,538,16,89,6,2,0,1,2,1,0,2,657,0,15,672,0,
86,348,7,164,13,0,0,0,0,0,2,2,536,0,2,538,0,
87,208,10,356,7,1,0,1,3,5,2,2,595,0,8,603,0,
88,221,14,304,5,2,2,2,2,2,0,7,561,0,1,562,0,
89,214,9,441,9,4,2,3,4,3,7,3,699,0,14,713,0,
90,268,4,157,12,1,0,1,0,0,1,4,448,0,12,460,0,
91,282,8,263,6,0,1,1,0,3,1,6,571,0,7,578,0,
92,281,6,326,2,2,1,0,0,2,3,2,625,0,6,631,0,
93,651,14,344,7,2,0,2,1,4,8,9,1042,0,11,1053,0,
94,509,13,153,12,0,2,0,1,0,2,4,696,0,8,704,0,
95,421,8,106,13,2,1,0,2,3,5,4,565,0,16,581,0,
96,477,19,338,18,1,5,2,2,3,4,9,878,0,15,893,0,
97,307,3,497,10,3,0,5,0,4,2,7,838,0,8,846,0,
98,155,10,549,8,0,1,3,1,4,9,3,743,0,11,754,0,
99,155,7,372,6,0,0,7,0,3,0,3,553,0,7,560,0,
100,137,3,468,7,2,0,11,0,3,4,7,642,0,5,647,0,
101,157,7,512,20,1,0,5,2,1,3,1,709,0,4,713,0,
102,209,6,573,6,4,0,2,1,3,1,1,806,0,4,810,0,
103,566,10,351,38,2,0,8,1,1,2,3,982,0,6,988,0,
104,229,10,535,21,4,2,10,2,6,4,4,827,0,5,832,0,
105,743,11,65,12,0,0,1,0,0,0,1,833,0,3,836,0,
106,347,2,362,37,0,3,2,0,2,3,1,759,0,1,760,0,
107,315,5,696,20,1,3,1,1,3,10,1,1086,0,7,1063,0,
108,226,3,383,18,0,0,2,1,0,1,2,636,0,4,640,0,
109,500,5,323,28,1,0,2,0,1,1,0,861,0,1,862,0,
110,438,11,596,58,2,3,11,0,2,6,4,1131,0,12,1143,0,
111,199,6,463,12,0,2,4,0,4,7,1,698,0,8,706,0,
112,175,8,619,11,1,2,2,2,3,4,7,834,0,10,844,0,
113,293,12,392,8,1,0,0,2,3,3,3,717,0,6,723,0,
114,174,5,378,22,1,0,0,0,2,6,1,589,0,8,597,0,
115,289,1,296,13,1,1,9,0,1,2,2,615,0,13,628,0,
116,380,2,126,7,1,0,2,0,0,1,3,522,0,6,528,0,
117,523,8,116,13,0,1,0,0,0,1,4,666,0,4,670,0,
118,316,13,645,21,4,0,19,1,3,7,5,1034,0,11,1045,0,
119,268,9,456,8,0,3,0,0,4,2,3,753,0,13,766,0,
120,290,8,528,9,0,2,43,1,3,5,4,893,0,1,894,0,
121,191,12,616,8,0,1,2,3,1,12,4,850,0,5,855,0,
122,143,7,421,13,3,1,6,0,2,4,2,602,0,8,610,0,
123,55,8,419,12,1,3,0,1,1,6,3,509,0,4,513,0,
124,553,13,406,23,0,3,0,0,0,2,2,1002,0,10,1012,0,
125,457,11,247,16,1,1,0,0,0,0,5,738,0,11,749,0,
126,261,13,729,35,2,0,6,1,2,10,8,1067,0,10,1077,0,
127,262,11,501,8,3,1,7,1,2,3,5,804,0,1,805,0,
128,185,8,529,8,2,4,12,1,5,6,8,768,0,10,778,0,
129,414,8,540,7,1,0,8,0,5,2,1,986,0,5,991,0,
130,180,4,444,5,1,2,2,0,2,3,2,645,0,11,656,0,
131,192,6,264,4,2,1,0,0,0,4,4,477,0,5,482,0,
132,200,1,333,2,1,1,0,0,2,1,3,544,0,8,552,0,
133,157,8,282,8,1,1,3,0,1,1,3,465,0,3,468,0,
134,255,7,315,5,0,0,1,3,2,2,4,594,0,7,601,0,
135,482,15,426,10,0,1,3,1,1,3,0,942,0,3,945,0,
136,193,3,745,11,2,0,2,3,2,12,1,974,0,6,980,0,
137,137,5,300,4,1,1,0,1,1,5,1,456,0,2,458,0,
138,151,13,532,7,1,1,2,2,1,5,6,721,0,1,722,0,
139,515,15,489,10,1,1,0,0,1,3,2,1037,0,7,1044,0,
140,341,8,318,9,1,1,0,1,1,3,2,685,0,14,699,0,
141,140,7,547,18,1,2,0,1,3,7,7,733,0,8,741,0,
142,289,5,554,19,1,2,3,5,1,4,4,887,0,6,893,0,
143,90,7,656,12,0,1,1,2,2,4,1,776,0,9,785,0,
144,220,2,319,6,1,3,0,4,1,1,2,559,0,7,566,0,
145,296,11,364,17,0,1,8,0,1,2,5,705,0,11,716,0,
146,352,26,557,21,1,5,2,2,5,9,5,985,0,8,993,0,
147,389,14,369,8,0,0,0,0,1,2,4,787,0,4,791,0,
148,216,13,631,9,0,1,13,3,0,2,5,893,0,7,900,0,
149,170,5,450,6,0,3,5,0,4,10,3,656,0,11,667,0,
150,158,3,439,17,2,0,9,2,3,8,1,642,0,2,644,0,
151,207,6,219,3,1,0,0,0,2,5,2,445,0,7,452,0,
152,332,39,522,25,4,4,5,5,5,5,6,952,0,9,961,0,
153,95,12,756,15,2,0,3,2,4,13,6,908,0,10,918,0,
154,264,12,517,8,2,0,1,2,3,7,3,819,0,8,827,0,
155,241,15,763,12,0,2,0,1,1,13,11,1059,0,11,1070,0,
156,178,4,414,7,0,1,1,0,1,3,1,610,0,1,611,0,
157,190,5,442,24,0,0,1,0,2,5,2,671,0,4,675,0,
158,314,5,334,23,1,3,3,0,0,4,2,689,0,6,695,0,
159,401,24,415,9,1,0,2,1,4,3,7,867,0,6,873,0,
160,171,7,821,12,3,1,3,2,3,6,3,1032,0 ',10,1042,0,
161,406,17,447,38,0,1,2,3,3,4,3,924,0,9,933,0,
162,145,21,500,12,0,2,0,0,0,7,1,688,0,8,696,0,
163,200,15,519,7,0,0,1,1,1,4,2,750,0,3,753,0,
164,315,23,462,20,2,0,1,0,1,6,5,835,0,5,840,0,
165,218,6,622,17,1,0,1,0,2,3,0,870,0,7,877,0,
166,317,15,405,12,0,1,3,0,1,4,4,762,0,2,764,0,
167,380,21,78,57,0,0,3,1,1,0,5,546,0,12,558,0,
168,344,18,329,47,2,1,1,1,0,3,4,750,0,10,760,0,
169,249,15,493,21,0,0,1,0,1,7,4,791,0,3,794,0,
170,105,5,449,12,1,1,2,1,5,6,4,591,0,7,598,0,
171,227,8,794,11,3,1,0,0,4,12,3,1065,0,13,1078,0,
172,204,6,408,2,0,0,1,0,3,0,1,625,0,5,630,0,
173,828,14,59,21,0,0,0,0,0,3,0,925,0,13,938,0,
174,303,11,504,27,0,0,0,0,4,7,8,864,0,10,874,0,
175,450,9,351,27,0,0,1,2,6,5,2,853,0,18,871,0,
176,385,9,393,28,0,1,2,0,2,7,11,838,0,19,857,0,
177,466,16,260,20,3,0,1,0,4,3,7,780,0,17,797,0,
178,364,11,551,17,1,2,2,1,4,5,8,966,0,17,983,0,
179,279,22,797,12,0,0,2,1,1,3,3,1120,0,2,1122,0,
180,262,7,254,12,1,1,2,0,0,2,6,547,0,9,556,0,
181,115,14,506,5,0,0,0,1,3,3,6,653,0,3,656,0,
182,687,5,243,19,0,0,1,0,1,1,1,958,0,5,963,0,
183,129,3,293,2,1,1,0,0,0,3,2,434,0,5,439,0,
184,273,15,446,20,2,2,1,2,4,9,9,783,0,13,796,0,
185,152,7,554,3,0,0,1,1,1,10,4,733,0,5,738,0,
186,736,13,300,39,1,0,0,2,3,2,1,1097,0,6,1103,0,
187,226,6,562,19,0,0,0,0,3,4,2,822,0,6,828,0,
188,318,14,409,11,0,0,1,0,4,5,2,764,0,14,778,0,
189,385,11,311,18,0,1,1,1,0,6,5,739,0,9,748,0,
190,688,11,99,30,4,0,1,0,1,2,2,838,0,10,848,0,
191,553,37,366,32,0,1,0,1,1,2,6,999,0,18,1017,0,
192,383,20,693,20,3,2,3,4,0,13,5,1146,0,11,1157,0,
193,615,2,316,32,0,0,2,1,3,1,5,977,0,6,983,0,
194,832,21,123,32,4,0,1,2,3,0,3,1021,0,10,1031,0,
195,389,7,200,12,0,2,0,1,2,2,1,616,0,14,630,0,
196,635,12,110,111,0,0,0,0,2,1,3,874,0,7,881,0,
197,326,10,400,12,0,1,1,0,7,3,9,769,0,14,783,0,
198,458,16,277,13,1,0,4,2,2,3,3,779,0,12,791,0,
199,414,7,546,5,1,1,0,0,1,4,0,979,0,7,986,0,
200,348,4,8,7,0,0,0,1,1,0,1,370,0,5,375,0,
201,265,16,154,8,0,0,0,1,1,0,5,450,0,7,457,0,
202,341,12,249,11,1,1,2,1,2,2,5,627,0,14,641,0,
203,414,9,39,7,0,0,0,0,0,0,2,471,0,3,474,0,
204,245,36,32,34,0,0,0,0,1,1,0,349,0,3,352,0,
205,420,14,159,9,2,1,0,0,0,2,1,608,0,8,616,0,
206,214,14,633,3,2,1,3,0,4,2,4,880,0,6,886,0,
207,266,3,443,9,1,1,1,0,4,5,8,741,0,13,754,0,
208,250,10,23,15,1,0,0,0,1,0,2,302,0,3,305,0,
209,398,11,224,13,1,1,0,1,4,2,5,660,0,7,667,0,
210,325,8,264,8,1,0,3,0,2,6,4,621,0,9,630,0,
211,338,4,409,9,3,1,4,0,4,3,3,778,0,6,784,0,
212,289,7,369,7,1,1,1,1,4,4,2,686,0,4,690,0,
213,252,16,309,4,1,0,0,0,1,5,3,591,0,10,601,0,
214,179,14,337,5,2,0,3,1,2,8,2,553,0,11,564,0,
215,333,20,672,8,1,2,3,3,5,7,1,1055,0,10,1065,0,
216,350,13,487,14,0,2,6,0,5,5,8,890,0,6,896,0,
217,111,12,866,24,3,3,8,1,2,7,3,1040,0,6,1046,0,
218,473,15,184,20,0,0,1,0,0,2,1,696,0,8,704,0,
219,515,3,171,4,1,0,0,0,2,2,3,701,0,7,708,0,
220,426,56,241,43,2,1,1,1,4,5,6,786,0,10,796,0,
221,523,8,461,47,1,0,1,3,2,1,2,1049,0,0,1049,0,
222,433,21,454,20,3,1,3,2,3,4,3,947,0,12,959,0,
223,300,3,425,8,2,0,0,0,0,1,1,740,0,3,743,0,
224,472,16,315,32,2,2,2,0,1,0,3,845,0,13,858,0,
225,438,9,517,48,1,1,1,1,0,0,3,1019,0,10,1029,0,
226,426,9,412,26,0,1,1,1,3,3,1,883,0,5,888,0,
227,373,11,428,30,1,1,0,0,0,4,2,850,0,5,855,0,
228,544,22,238,23,0,0,1,1,2,2,2,835,0,9,844,0,
229,273,10,365,10,1,0,0,0,1,3,1,664,0,2,666,0,
230,125,5,444,6,1,0,4,0,2,3,1,591,0,7,598,0,
231,564,11,190,24,2,2,2,0,2,2,3,802,0,11,813,0,
232,385,11,316,11,2,0,1,0,4,2,1,733,0,4,737,0,
233,198,18,683,17,0,0,0,3,0,5,2,926,0,3,929,0,
234,504,9,321,27,0,0,0,0,2,2,5,870,0,2,872,0,
235,484,11,471,13,0,1,1,0,3,5,2,991,0,18,1009,0,
236,348,10,642,14,0,0,2,2,3,6,2,1029,0,4,1033,0,
237,385,7,239,14,0,0,2,1,0,3,2,653,0,9,662,0,
238,319,4,187,11,0,1,0,0,1,5,1,529,0,8,537,0,
239,436,8,155,43,0,3,0,0,1,1,2,649,0,4,653,0,
240,256,5,244,15,1,2,1,0,1,6,2,533,0,4,537,0,
241,410,8,391,8,0,3,0,2,2,8,4,836,0,5,841,0,
242,475,9,311,11,0,1,0,1,4,3,1,816,0,10,826,0,
243,326,6,607,24,1,0,0,0,0,6,7,977,0,8,985,0,
244,551,15,154,28,0,2,0,1,0,2,2,755,0,3,758,0,
245,530,11,150,43,0,0,0,0,6,1,4,745,0,13,758,0,
246,256,13,524,16,1,0,0,3,0,4,1,818,0,9,827,0,
247,540,13,251,28,1,1,0,0,1,3,2,840,0,9,849,0,
248,267,8,230,32,1,0,0,0,2,1,0,541,0,0,541,0,
249,329,13,181,53,0,1,1,1,1,2,4,586,0,6,592,0,
250,334,13,178,20,0,3,0,0,0,0,2,550,0,2,552,0,
251,348,10,78,29,1,2,0,0,2,0,1,471,0,6,477,0,
252,354,6,6,18,0,0,0,0,1,0,3,388,0,3,391,0,
253,290,13,33,21,1,1,0,0,0,0,1,360,0,1,361,0,
254,860,5,13,9,1,5,1,1,1,1,2,899,0,0,899,0,
255,1025,1,8,3,8,3,1,1,2,2,1,1055,0,0,1055,0,
256,851,39,96,36,1,0,0,0,1,2,0,1026,0,8,1034,0,
257,488,5,93,18,0,0,1,0,0,0,0,608,0,2,607,0,
258,374,6,195,11,0,1,1,1,2,3,0,594,0,4,598,0,
259,879,17,10,16,0,1,0,1,1,0,0,925,0,0,925,0,
260,955,2,27,8,0,0,0,0,0,0,0,992,0,3,995,0,
261,834,2,5,17,0,0,0,0,0,0,0,858,0,4,862,0,
262,687,10,277,12,0,0,0,1,3,6,8,1004,0,7,1011,0,
263,484,12,44,27,0,0,0,0,1,2,0,570,0,7,577,0,
264,457,5,25,36,0,3,1,0,1,2,2,532,0,4,536,0,
265,394,14,189,38,1,0,2,0,1,2,0,641,0,1,642,0,
266,662,8,161,20,0,0,0,0,2,2,5,860,0,4,864,0,
267,572,9,288,48,2,7,1,1,1,3,6,938,0,16,954,0,
268,930,26,10,32,0,0,0,0,0,0,0,998,0,0,998,0,
269,845,34,18,24,0,0,0,0,1,0,0,922,0,4,926,0,
270,525,14,470,5,3,1,1,1,1,5,7,1033,0,5,1038,0,
271,325,14,105,35,2,0,2,2,0,1,0,486,0,1,487,0,
272,429,29,185,31,0,2,2,0,2,6,4,690,0,3,693,0,
273,405,8,375,27,3,0,0,0,1,0,5,824,0,4,828,0,
274,436,7,360,13,1,0,2,0,1,1,4,825,0,9,834,0,
275,511,12,150,21,0,3,0,0,1,2,2,702,0,16,718,0,
276,767,13,32,39,0,2,0,0,1,4,7,865,0,11,876,0,
277,250,7,383,10,1,1,0,0,3,6,4,665,0,6,671,0,
278,390,3,364,16,2,0,0,1,1,2,4,783,0,6,789,0,
279,558,8,14,61,1,0,0,0,0,0,3,645,0,5,650,0,
280,711,4,17,36,2,1,0,0,1,0,2,774,0,6,780,0,
281,461,18,390,48,1,1,1,1,4,2,3,930,0,12,942,0,
282,754,11,126,29,2,0,0,1,1,2,2,928,0,9,937,0,
283,930,6,20,5,0,0,0,0,0,0,1,962,0,5,967,0,
284,527,5,15,2,0,0,0,0,0,0,0,549,0,1,550,0,
285,951,5,15,4,0,1,0,1,0,0,0,977,0,3,980,0,
286,597,11,116,53,2,1,0,2,3,2,8,795,0,16,811,0,
287,663,5,75,21,0,0,0,0,1,1,1,767,0,11,778,0,
288,469,6,60,22,2,0,2,1,0,1,3,566,0,5,571,0,
289,505,2,7,7,0,0,0,0,0,0,0,521,0,0,521,0,
290,623,2,13,10,1,2,1,0,0,0,0,652,0,0,652,0,
291,704,14,8,23,1,0,0,0,0,1,0,751,0,2,753,0,
292,872,19,25,43,1,0,0,0,2,2,8,972,0,19,991,0,
293,360,11,19,62,0,0,0,1,0,1,3,457,0,5,462,0,
1,479,31,455,12,0,3,0,2,2,2,5,991,0,7,998,0,
2,208,7,219,3,0,0,1,0,0,2,1,441,0,3,444,0,
3,161,8,337,10,0,1,0,0,1,4,3,525,0,8,533,0,
4,171,8,515,3,0,1,1,1,1,3,0,704,0,4,708,0,
5,253,5,617,11,4,1,1,3,9,9,7,920,0,10,930,0,
6,188,8,228,9,0,1,0,0,0,2,3,439,0,4,443,0,
7,371,20,250,23,1,1,1,1,4,3,2,677,0,7,684,0,
8,339,9,543,14,0,0,1,2,2,4,3,917,0,12,929,0,
9,150,4,247,2,1,0,0,0,0,1,1,406,0,3,409,0,
10,162,15,320,4,1,0,2,0,1,3,2,510,0,7,517,0,
11,284,8,170,6,1,0,0,2,0,2,1,474,0,3,477,0,
12,413,12,369,8,2,2,0,1,4,4,4,819,0,6,825,0,
13,463,54,288,23,1,3,0,2,1,6,6,847,0,11,858,0,
14,315,31,624,19,0,2,1,3,6,7,3,1011,0,4,1015,0,
15,221,17,420,2,1,0,2,1,1,3,2,670,0,4,674,0,
16,89,17,420,7,0,1,0,0,1,2,2,539,0,5,544,0,
17,383,26,219,10,0,2,1,1,1,1,2,646,0,5,651,0,
18,297,27,400,10,2,0,1,0,2,3,1,743,0,8,751,0,
19,266,38,165,13,1,1,0,1,2,4,1,492,0,5,497,0,
20,468,16,482,11,1,0,1,1,2,5,2,989,0,10,999,0,
21,497,24,389,38,1,0,2,1,0,2,6,960,0,1 1,971,0,
22,434,25,448,16,1,0,1,0,1,2,1,929,0,3,932,0,
23,418,21,403,12,1,0,1,1,7,8,4,876,0,13,889,0,
24,333,16,214,1,0,1,0,0,2,2,4,573,0,2,575,0,
25,376,91,161,20,1,1,0,1,3,5,3,662,0,14,676,0,
26,286,55,195,7,0,0,0,2,1,1,2,549,0,5,884,0,
27,581,40,170,5,0,1,0,0,0,2,2,801,0,8,809,0,
28,135,23,848,11,4,0,1,0,4,13,5,1044,0,5,1049,0,
29,261,10,689,8,1,0,2,2,2,6,5,986,0,9,995,0,
30,170,8,514,7,0,1,1,0,1,7,2,711,0,5,716,0,
31,99,16,326,4,1,1,2,0,2,1,2,454,0,4,458,0,
32,209,46,110,4,1,1,0,0,0,2,1,374,0,1,375,0,
33,124,46,439,5,0,0,2,2,2,6,2,628,0,6,634,0,
34,176,17,328,5,1,0,1,1,2,4,2,537,0,3,540,0,
35,71,9,303,4,1,0,0,0,0,1,1,390,0,5,395,0,
36,324,14,367,5,1,1,1,1,1,12,4,731,0,6,737,0,
37,241,18,770,17,1,1,1,0,2,7,3,1061,0,2,1063,0,
38,86,20,724,13,1,2,0,3,2,2,2,855,0,7,862,0,
39,403,23,540,10,3,2,0,2,4,11,3,1001,0,10,1011,0,
40,382,14,440,9,2,2,0,1,5,5,4,864,0,7,871,0,
41,197,9,222,0,1,0,0,2,1,0,1,433,0,8,441,0,
42,179,31,172,5,1,0,1,0,2,2,2,395,0,7,402,0,
43,697,65,11,5,1,1,0,3,1,1,3,788,0,9,797,0,
44,638,21,16,4,1,2,3,0,0,1,3,689,0,8,697,0,
45,258,4,569,5,0,1,0,0,0,2,1,840,0,4,844,0,
46,305,9,681,16,0,1,0,1,0,2,3,1018,0,4,1022,0,
47,251,6,541,8,2,0,2,1,3,2,3,819,0,13,832,0,
48,226,17,443,5,1,0,0,1,3,4,2,702,0,3,705,0,
49,206,13,245,4,0,1,1,1,2,2,1,476,0,5,481,0,
50,347,17,205,1,0,0,2,0,1,2,3,578,0,10,588,0,
51,351,7,499,16,0,0,1,2,2,2,2,882,0,4,886,0,
52,172,13,690,11,0,0,1,2,3,8,5,905,0,9,914,0,
53,169,4,505,4,1,0,0,2,2,10,7,704,0,8,712,0,
54,454,17,329,8,1,2,0,0,2,2,1,816,0,9,825,0,
55,203,5,239,3,0,0,0,1,2,1,1,455,0,1,456,0,
56,286,25,676,19,0,0,2,0,2,6,7,1023,0,16,1039,0,
57,301,22,739,9,1,1,6,1,2,12,5,1099,0,10,1109,0,
58,295,8,749,7,2,1,0,2,1,8,2,1075,0,12,1087,0,
59,309,4,390,3,0,0,0,0,1,5,1,713,0,2,715,0,
60,341,20,389,5,0,0,0,0,2,1,3,761,0,9,770,0,
61,250,5,536,12,3,1,1,0,4,4,1,817,0,14,831,0,
62,295,6,403,4,1,1,0,2,4,3,5,724,0,8,732,0,
63,201,6,316,6,2,0,1,1,1,4,3,541,0,4,545,0,
64,194,8,399,2,0,0,2,1,3,0,2,611,0,11,622,0,
65,181,6,490,10,1,0,1,0,1,0,0,690,0,6,696,0,
66,185,3,263,6,1,1,3,0,0,2,1,465,0,9,474,0,
67,175,5,339,5,1,1,2,0,1,0,1,530,0,4,534,0,
68,334,13,624,14,3,1,0,1,9,9,5,1013,0,15,1028,0,
69,248,26,695,7,2,0,0,0,3,3,3,987,0,7,994,0,
70,155,24,442,3,0,0,1,2,0,2,0,629,0,2,631,0,
71,76,3,455,6,1,0,2,1,3,2,4,553,0,4,557,0,
72,252,24,458,3,2,2,0,1,1,5,5,753,0,7,760,0,
73,314,12,529,6,1,0,0,0,1,4,2,869,0,4,873,0,
74,389,12,579,10,2,0,0,1,3,9,13,1018,0,14,1032,0,
75,260,12,392,2,1,0,1,2,3,9,6,688,0,5,693,0,
76,177,6,248,4,0,0,3,0,0,0,1,439,0,3,442,0,
77,193,11,610,9,1,0,1,0,4,5,0,834,0,2,836,0,
78,192,6,341,3,0,0,1,0,1,2,1,547,0,4,551,0,
79,298,7,195,13,1,2,0,1,0,0,0,517,0,3,520,0,
80,214,4,421,4,2,1,0,1,0,2,1,650,0,4,654,0,
81,260,33,336,10,0,0,1,0,1,4,1,646,0,2,648,0,
82,265,37,300,22,0,0,0,1,1,2,1,629,0,2,631,0,
83,141,5,270,6,0,1,0,1,1,4,0,429,0,2,431,0,
84,407,84,169,29,1,1,0,0,2,0,4,697,0,2,699,0,
85,472,13,65,10,0,0,0,0,0,0,2,562,0,6,568,0,
86,578,37,52,7,0,0,0,0,0,0,2,676,0,7,683,0,
87,369,7,282,3,0,0,1,1,3,2,2,670,0,10,680,0,
88,288,2,386,6,2,2,0,2,3,6,2,699,0,6,705,0,
89,535,50,225,16,0,2,0,1,0,1,2,832,0,9,841,0,
90,383,117,71,54,0,2,1,3,1,2,5,639,0,9,648,0,
91,240,19,406,8,0,0,0,1,1,6,1,682,0,9,691,0,
92,207,11,396,4,2,0,0,0,0,3,2,625,0,2,627,0,
93,343,12,494,15,0,0,0,1,0,5,2,872,0,14,886,0,
94,318,21,319,6,1,1,2,1,1,2,5,677,0,9,686,0,
95,261,11,193,3,0,2,1,1,3,3,2,480,0,7,487,0,
96,318,11,654,8,3,0,0,2,5,14,3,1018,0,13,1031,0,
97,399,35,218,12,0,0,0,0,1,1,3,669,0,5,674,0,
98,311,18,489,12,1,1,1,1,1,4,7,846,0,11,857,0,
99,334,7,305,10,1,0,0,0,1,5,1,664,0,9,673,0,
100,459,25,480,15,2,2,0,1,4,0,4,992,0,16,1008,0,
101,785,28,86,17,0,0,1,0,2,0,4,923,0,10,933,0,
102,341,21,265,14,1,0,1,0,1,6,2,652,0,9,661,0,
103,277,22,316,4,0,1,2,0,2,4,2,630,0,8,638,0,
104,273,11,274,8,1,1,1,2,2,0,1,574,0,6,580,0,
105,385,30,65,10,0,0,0,0,1,1,1,493,0,1,494,0,
106,306,17,469,18,0,1,0,1,1,7,3,823,0,8,831,0,
107,280,12,645,9,1,0,0,0,3,10,4,964,0,2,966,0,
108,333,11,354,11,2,0,0,0,3,3,4,721,0,2,723,0,
109,310,10,306,10,0,0,0,1,7,5,9,658,0,15,673,0,
110,214,6,333,7,1,0,0,0,0,3,2,566,0,11,577,0,
111,424,14,413,30,4,4,3,0,2,6,5,908,0,3,908,0,
112,565,29,112,16,0,1,0,1,1,0,3,728,0,4,732,0,
113,194,33,253,4,0,2,1,0,1,3,0,491,0,5,496,0,
114,270,3,337,2,0,0,0,1,1,4,1,619,0,6,625,0,
115,317,10,217,3,0,0,1,0,0,4,3,555,0,5,560,0,
116,283,16,574,13,0,0,2,2,3,8,3,904,0,13,917,0,
117,322,18,372,9,0,0,1,0,1,6,1,730,0,7,737,0,
118,230,17,436,12,2,0,0,3,0,2,2,704,0,3,707,0,
119,210,4,287,7,3,0,1,2,1,2,2,519,0,9,528,0,
120,170,11,407,9,0,2,0,0,2,2,5,608,0,10,618,0,
121,329,12,344,16,0,0,0,0,1,5,5,712,0,9,721,0,
122,547,28,396,5,0,1,1,1,4,3,2,988,0,6,994,0,
123,305,15,286,7,0,0,1,0,0,1,0,615,0,7,622,0,
124,182,26,657,7,1,3,0,1,2,4,0,883,0,5,888,0,
125,181,10,588,17,1,0,1,0,4,6,8,816,0,6,822,0,
126,350,15,391,24,3,2,3,0,1,3,2,794,0,4,798,0,
127,320,41,463,9,0,0,3,1,2,8,3,850,0,10,860,0,
128,357,7,264,13,1,0,0,1,5,6,8,662,0,23,685,0,
129,585,13,71,3,1,1,1,0,1,4,7,687,0,22,709,0,
130,232,17,355,16,3,0,1,1,2,9,2,638,0,3,641,0,
131,267,22,295,7,1,0,0,1,2,8,0,603,0,10,613,0,
132,343,26,465,17,1,1,1,1,2,10,3,870,0,12,882,0,
133,200,6,484,4,1,1,1,3,0,8,2,710,0,8,718,0,
134,249,6,412,9,2,1,1,0,3,6,3,692,0,5,697,0,
135,198,15,255,3,3,0,0,0,0,1,1,476,0,7,483,0,
136,170,12,613,14,1,0,0,2,3,8,4,827,0,4,831,0,
137,89,4,191,2,0,0,0,1,1,3,1,292,0,2,294,0,
138,349,10,310,6,0,0,0,0,4,5,3,687,0,9,696,0,
139,337,11,299,8,1,2,3,0,3,6,8,678,0,12,690,0,
140,167,0,456,4,0,3,0,0,2,6,0,638,0,4,642,0,
141,125,7,520,9,2,0,1,0,4,4,0,672,0,5,677,0,
142,189,11,722,15,1,4,2,2,3,5,4,958,0,6,964,0,
143,186,4,647,5,1,0,1,2,1,3,3,853,0,9,862,0,
144,474,12,487,14,1,1,3,0,2,1,1,996,0,7,1003,0,
145,154,4,471,4,1,1,0,0,2,3,2,642,0,11,653,0,
146,162,4,492,11,2,1,0,0,3,5,1,681,0,7,688,0,
147,217,5,460,8,1,0,1,2,1,2,4,701,0,6,707,0,
148,276,7,783,7,2,1,1,3,3,13,7,1103,0,6,1109,0,
149,343,12,793,6,1,2,2,1,3,7,6,1176,0,12,1188,0,
150,336,7,537,10,0,0,0,2,2,13,6,913,0,12,925,0,
151,407,7,57,10,0,0,1,0,1,0,0,483,0,2,485,0,
152,614,12,75,49,1,6,0,2,0,0,2,761,0,3,764,0,
153,483,2,161,15,0,0,0,0,0,1,1,663,0,4,667,0,
154,611,21,178,9,0,0,1,1,2,4,5,832,0,28,860,0,
155,536,8,119,24,1,0,0,0,0,1,2,691,0,17,708,0,
156,214,6,386,5,1,0,1,1,2,5,0,621,0,7,628,0,
157,318,5,223,8,2,1,0,0,2,2,0,561,0,1,562,0,
158,235,38,716,25,2,0,1,4,8,16,2,1047,0,16,1063,0,
159,347,20,540,16,0,0,2,1,4,12,6,948,0,14,962,0,
160,357,7,425,20,1,1,0,3,4,10,2,830,0,9,839,0,
161,427,46,249,53,1,3,0,3,0,4,2,788,0,14,802,0,
162,574,7,57,10,0,0,0,0,1,0,1,650,0,6,656,0,
163,535,14,148,17,0,0,2,1,2,3,3,725,0,9,734,0,
164,660,34,322,8,0,2,0,2,2,5,5,1040,0,6,1046,0,
165,423,33,271,7,1,2,0,1,3,3,7,751,0,10,761,0,
166,450,8,47,2,0,1,0,0,0,1,1,510,0,1,511,0,
167,695,16,134,157,1,2,1,0,1,4,5,1016,0,12,1028,0,
168,520,9,83,45,2,1,4,1,3,4,6,678,0,20,698,0,
169,733,8,167,109,0,0,1,2,0,5,4,1029,0,12,1041,0,
170,157,4,673,7,0,1,0,0,4,16,10,872,0,9,881,0,
171,570,38,151,62,2,0,0,2,5,6,7,843,0,7,850,0,
172,331,10,172,21,0,0,2,0,1,2,2,541,0,2,543,0,
173,415,12,231,15,1,3,0,1,4,5,4,691,0,15,706,0,
174,304,8,42,105,1,0,1,0,3,1,0,465,0,3,468,0,
175,325,12,73,116,3,2,0,0,0,0,2,533,0,1,534,0,
176,572,36,20,49,0,1,0,0,0,0,0,678,0,3,681,0,
177,655,15,9,8,0,0,1,0,0,0,1,689,0,0,689,0,
178,266,7,328,8,2,0,0,0,0,6,3,620,0,5,625,0,
179,528,24,339,34,1,0,2,1,1,11,8,949,0,14,963,0,
180,242,11,623,4,1,0,0,1,1,11,2,896,0,7,903,0,
181,549,12,311,15,3,0,0,1,4,3,3,901,0,13,914,0,
182,465,59,43,21,0,1,0,0,0,0,2,591,0,9,600,0,
183,171,5,462,1,0,0,0,0,1,5,1,646,0,4,650,0,
184,282,45,262,20,1,0,2,1,5,1,4,623,0,4,627,0,
185,210,19,445,9,0,0,1,0,4,1,1,690,0,3,693,0,
186,630,173,21,23,1,2,1,2,6,1,1,861,0,21,882,0,
187,463,14,401,7,0,0,0,1,2,4,4,896,0,8,904,0,
188,207,29,405,6,0,0,1,0,3,7,1,659,0,8,667,0,
189,417,50,214,14,1,1,0,1,0,6,7,711,0,8,719,0,
190,256,13,297,4,1,0,0,1,1,5,4,582,0,4,586,0,
191,490,15,42,7,0,1,0,0,1,1,2,559,0,13,572,0,
192,402,49,53,2,1,0,2,0,0,1,3,513,0,4,517,0,
193,483,81,7,16,1,1,0,0,2,3,2,596,0,4,600,0,
194,669,7,5,15,0,2,0,0,0,0,1,699,0,2,701,0,
195,380,12,124,6,0,0,0,0,0,2,5,529,0,4,533,0,
196,208,11,354,5,0,0,0,2,1,3,2,586,0,10,596,0,
197,488,35,163,4,1,1,0,0,1,3,3,699,0,9,708,0,
198,673,25,292,19,1,2,0,2,1,5,7,1027,0,16,1043,0,
199,402,8,144,6,0,0,0,0,2,4,2,568,0,3,571,0,
200,456,46,42,9,0,3,0,0,0,0,2,558,0,6,564,0,
201,527,17,281,16,0,0,1,0,1,4,1,848,0,6,854,0,
202,561,32,249,16,0,1,0,1,3,1,1,865,0,7,872,0,
203,579,67,310,26,0,1,0,0,6,3,4,996,0,9,1005,0,
204,469,21,268,4,3,0,0,0,3,7,6,781,0,7,788,0,
205,492,84,184,14,0,0,1,3,1,4,1,784,0,7,791,0,
206,340,47,376,12,0,0,0,0,0,6,4,785,0,8,793,0,
207,590,23,231,18,1,0,1,0,0,5,1,870,0,10,880,0,
208,702,21,212,10,0,0,1,1,1,5,2,955,0,13,968,0,
209,392,7,44,3,0,1,0,1,0,2,1,451,0,2,453,0,
210,496,24,132,11,1,0,0,1,1,0,2,668,0,5,673,0,
211,492,43,144,46,0,0,0,0,1,1,0,727,0,4,731,0,
212,483,56,66,48,1,2,0,0,1,1,7,665,0,9,674,0,
213,371,15,58,14,0,0,0,0,0,2,1,461,0,7,468,0,
214,549,12,20,19,0,0,0,0,0,0,2,602,0,7,609,0,
215,662,10,12,8,0,0,0,0,0,0,0,692,0,0,692,0,
216,491,26,30,23,1,1,0,0,2,0,3,577,0,2,579,0,
217,593,24,152,12,1,0,0,0,0,2,2,786,0,8,794,0,
218,367,14,223,45,1,1,0,0,1,4,4,660,0,4,664,0,
219,99,9,319,1,1,1,1,0,0,4,1,436,0,5,441,0,
220,702,39,26,29,0,0,0,1,3,2,2,804,0,5,809,0,
221,492,23,176,30,0,1,0,0,2,3,5,732,0,11,743,0,
222,598,35,87,22,0,0,0,0,1,2,2,747,0,5,752,0,
223,325,10,131,10,0,0,0,0,0,0,2,478,0,0,478,0,
224,435,21,44,17,0,0,0,0,0,2,0,519,0,4,523,0,
225,393,7,58,10,0,0,0,0,0,0,3,471,0,5,476,0,
226,203,19,459,22,1,0,0,1,4,4,1,714,0,12,726,0,
227,150,13,557,11,2,1,2,0,1,12,3,752,0,7,759,0,
228,312,18,545,12,1,2,3,2,2,6,5,908,0,8,916,0,
229,186,14,646,14,2,1,3,1,3,4,6,880,0,9,889,0,
230,115,2,484,2,1,0,0,0,2,4,2,612,0,6,618,0,
231,180,10,475,6,1,1,1,2,4,4,5,689,0,7,696,0,
232,197,15,464,12,1,2,2,0,1,2,2,698,0,6,704,0,
233,395,27,323,21,2,1,1,0,1,2,6,779,0,5,784,0,
234,79,7,407,15,0,0,1,0,1,1,3,514,0,4,518,0,
235,81,15,508,14,1,1,1,0,1,2,1,625,0,7,632,0,
236,365,15,286,3,0,0,1,0,1,2,2,675,0,4,679,0,
237,88,9,538,10,1,0,1,0,2,9,2,660,0,5,665,0,
238,437,16,178,4,0,0,0,0,0,3,2,640,0,9,649,0,
239,288,15,391,7,0,0,2,1,1,3,3,711,0,8,719,0,
240,243,9,503,2,0,1,2,1,2,5,3,771,0,2,773,0,
241,117,7,436,2,0,1,1,0,4,4,3,575,0,7,582,0,
242,420,24,190,11,0,0,0,0,1,3,2,651,0,11,662,0,
243,158,5,407,8,0,2,1,1,3,1,4,590,0,5,595,0,
244,239,20,621,12,0,3,3,0,2,7,3,910,0,6,916,0,
245,496,10,502,15,2,2,1,0,0,4,4,1036,0,11,1047,0,
246,451,19,380,20,1,0,0,1,1,2,0,875,0,4,879,0,
247,496,11,85,7,0,0,0,1,0,1,0,601,0,3,604,0,
248,136,8,402,1 1,1,1,0,0,5,1,5,570,0,1,571,0,
249,170,12,397,12,0,2,0,0,2,4,1,600,0,3,603,0,
250,348,12,449,15,0,0,0,3,1,2,1,831,0,7,838,0,
251,525,21,191,19,0,1,2,0,0,5,2,766,0,20,786,0,
252,636,19,444,38,1,3,4,2,1,2,10,1160,0,10,1170,0,
253,331,18,577,10,0,2,1,0,3,16,7,965,0,11,976,0,
254,459,30,341,3,2,0,0,0,0,4,1,840,0,8,848,0,
255,433,17,401,31,1,1,1,1,2,7,5,900,0,9,909,0,
256,461,12,493,49,1,0,1,2,4,1,2,1026,0,10,1036,0,
257,612,37,149,97,1,2,0,2,0,4,4,908,0,4,912,0,
258,325,15,657,13,0,7,2,1,3,6,8,1037,0,18,1055,0,
259,164,9,518,9,1,4,4,3,1,9,5,727,0,6,733,0,
260,303,14,742,4,1,1,11,2,2,5,1,1086,0,5,1091,0,
261,335,20,612,14,2,0,0,2,4,4,1,994,0,16,1010,0,
262,158,11,510,21,1,3,0,2,3,3,4,716,0,3,719,0,
263,278,19,452,17,2,1,0,0,0,2,1,772,0,8,780,0,
264,182,10,476,9,1,0,1,1,2,2,1,685,0,8,693,0,
265,366,31,415,3,1,1,0,1,2,6,1,827,0,12,839,0,
266,320,10,171,3,0,1,1,0,1,0,3,510,0,3,513,0,
267,415,6,289,11,0,1,0,0,4,3,8,737,0,16,753,0,
268,195,5,312,5,0,0,1,2,2,2,2,526,0,7,533,0,
269,366,6,696,8,4,2,2,1,5,6,2,1098,0,4,1102,0,
270,144,13,468,10,1,0,0,0,2,5,4,647,0,6,653,0,
271,97,12,424,6,0,0,0,1,2,8,3,553,0,3,556,0,
272,255,33,735,13,2,1,0,1,1,4,1,1046,0,11,1057,0,
273,144,16,664,6,1,0,0,1,2,6,5,845,0,3,848,0,
274,176,8,542,15,1,1,1,1,2,6,0,753,0,3,756,0,
275,182,7,511,7,4,0,1,1,2,9,4,728,0,6,734,0,
276,202,6,468,9,1,2,0,0,1,6,3,698,0,3,701,0,
277,306,24,509,6,1,1,0,0,4,4,3,858,0,3,861,0,
278,171,11,477,10,1,3,1,3,0,3,4,684,0,6,690,0,
279,364,28,543,12,2,2,0,1,3,2,5,962,0,9,971,0,
280,667,10,116,11,0,0,0,0,0,1,1,806,0,4,810,0,
281,369,42,558,10,1,1,0,6,1,2,4,994,0,17,10n,0,
282,81,16,306,7,0,0,1,0,0,0,0,411,0,2,413,0,
283,91,50,381,9,0,1,0,0,1,2,0,535,0,6,541,0,
284,162,47,600,18,0,1,5,0,0,0,2,835,0,7,842,0,
285,172,59,612,16,1,0,1,4,1,0,0,866,0,7,873,0,
286,146,17,393,5,0,0,0,0,2,1,1,565,0,2,567,0,
287,91,11,440,4,0,1,0,0,1,2,0,550,0,3,553,0,
288,129,23,383,4,0,1,1,0,0,0,1,542,0,5,547,0,
289,96,19,374,3,0,0,1,1,1,1,0,496,0,5,501,0,
290,153,14,448,11,0,1,0,0,1,3,1,632,0,2,634,0,
291,171,21,516,12,0,1,5,0,4,3,1,734,0,10,744,0,
292,101,17,274,14,0,1,3,0,0,1,1,412,0,4,416,0,
293,307,31,613,13,2,2,3,0,0,2,3,976,0,7,983,0,
294,97,42,358,19,1,0,2,2,1,2,1,525,0,3,528,0,
295,161,11,421,12,0,0,2,4,2,3,0,616,0,3,619,0,
296,206,13,445,4,0,1,0,0,6,4,3,682,0,5,687,0,
297,243,16,703,9,0,2,1,3,3,4,2,986,0,8,994,0,
298,108,4,493,17,0,1,3,0,1,2,4,633,0,6,639,0,
299,133,7,385,14,2,0,0,1,3,2,4,551,0,3,554,0,
300,136,20,697,14,2,0,1,2,0,1,1,874,0,4,878,0,
301,54,2,137,0,0,0,0,2,0,0,0,195,0,3,198,0,
302,146,24,662,23,2,1,0,0,1,3,1,863,0,7,870,0,
303,98,19,454,6,0,0,2,2,1,2,4,588,0,7,595,0,
304,110,18,436,10,1,1,1,0,0,1,0,578,0,4,582,0,
305,145,15,680,4,2,0,0,0,4,8,3,861,0,6,867,0,
306,132,22,635,2,3,4,0,3,0,0,3,804,0,4,808,0,
307,126,10,486,3,1,1,0,0,0,2,4,633,0,10,643,0,
308,66,7,329,1,0,0,1,1,1,1,1,408,0,1,409,0,
309,186,12,729,14,2,1,2,2,5,4,1,958,0,5,963,0,
310,119,5,369,4,0,1,0,2,0,4,1,505,0,7,512,0,
311,160,21,565,10,0,0,1,1,2,0,1,761,0,5,766,0,
312,142,18,445,13,0,0,0,0,0,2,0,620,0,6,626,0,
313,393,14,652,28,0,1,1,0,1,3,3,1096,0,5,1101,0,
314,67,2,177,2,0,0,0,0,0,0,0,248,0,1,249,0,
315,532,17,192,23,0,2,0,0,0,4,10,780,0,13,793,0,
316,235,8,309,21,1,0,0,1,3,1,2,581,0,8,589,0,
1,198,1,540,6,1,0,0,1,2,5,2,756,0,4,760,0,
2,113,1,263,2,1,0,0,0,1,1,2,384,0,1,385,0,
3,315,12,655,4,1,0,2,2,1,6,4,1002,0,7,1009,0,
4,481,8,436,15,0,0,0,1,6,7,1,955,0,4,959,0,
5,328,22,313,8,0,0,3,0,2,0,1,677,0,4,681,0,
6,230,14,314,3,0,0,2,1,1,2,3,570,0,13,573,0,
7,228,14,540,11,1,1,1,1,2,4,7,810,0,8,818,0,
8,356,16,731,11,1,1,2,4,5,17,10,1154,0,10,1164,0,
9,507,11,504,36,1,1,1,2,0,7,3,1073,0,11,1084,0,
10,418,12,424,9,1,3,0,2,2,5,1,877,0,9,886,0,
11,269,4,316,6,0,0,4,0,0,2,5,606,0,5,611,0,
12,160,6,344,5,1,0,2,1,1,2,2,524,0,2,526,0,
13,349,14,607,11,0,0,0,0,3,8,4,996,0,11,1007,0,
14,414,21,287,11,0,0,1,1,1,3,2,741,0,9,750,0,
15,181,3,358,4,0,0,0,0,2,7,2,557,0,4,561,0,
16,217,3,467,5,0,0,1,1,0,3,2,699,0,5,704,0,
17,365,18,408,3,0,1,2,0,1,2,1,801,0,6,807,0,
18,456,27,203,19,0,2,1,1,0,5,0,714,0,9,723,0,
19,349,12,626,14,0,2,1,4,5,4,2,1019,0,7,1026,0,
20,176,6,543,10,1,0,3,1,2,5,2,749,0,7,756,0,
21,292,11,329,12,0,0,0,0,2,5,4,655,0,4,659,0,
22,306,13,418,5,1,0,2,1,2,6,8,762,0,6,768,0,
23,270,7,493,2,0,1,0,0,0,0,0,773,0,1,774,0,
24,348,27,256,4,0,0,0,0,1,3,3,642,0,3,645,0,
25,256,10,263,4,0,0,1,0,2,2,0,538,0,4,542,0,
26,234,17,273,2,0,0,0,0,1,1,4,532,0,5,537,c,
27,302,11,503,6,0,0,0,0,3,5,2,832,0,8,840,0,
28,304,9,456,6,1,1,3,3,1,2,3,789,0,4,793,0,
29,372,21,371,9,2,2,3,0,2,5,2,789,0,11,800,0,
30,149,6,167,2,0,0,3,1,1,2,1,332,0,3,335,0,
31,509,29,441,14,2,2,1,1,1,9,2,1011,0,7,1018,0,
32,125,14,464,9,0,0,2,0,3,5,3,625,0,3,628,0,
33,238,7,346,5,1,2,0,1,1,5,1,607,0,3,610,0,
34,261,39,348,52,4,1,0,1,4,7,3,720,0,7,727,0,
35,407,48,409,27,1,0,4,2,3,8,4,913,0,12,925,0,
36,387,31,449,31,1,1,1,0,2,5,1,909,0,6,915,0,
37,285,16,207,18,0,2,1,0,4,7,3,543,0,9,552,0,
38,294,19,289,2,2,0,2,0,2,3,3,616,0,5,621,0,
39,188,14,287,6,1,0,13,1,2,3,1,516,0,5,521,0,
40,369,25,299,8,0,0,0,0,0,5,0,706,0,5,711,0,
41,154,9,427,8,1,0,3,0,6,8,2,618,0,11,629,0,
42,128,48,467,8,0,0,1,1,1,4,3,661,0,5,666,0,
43,287,33,335,4,1,1,0,0,1,4,8,674,0,7,681,0,
44,127,6,497,7,0,0,1,1,5,8,4,656,0,5,661,0,
45,457,21,617,23,1,1,2,2,6,9,3,1142,0,11,1153,0,
46,200,6,473,7,1,2,4,1,1,6,4,708,0,10,715,0,
47,230,18,332,8,0,0,0,2,3,3,0,596,0,2,598,0,
48,308,14,731,8,1,1,0,2,3,6,7,1081,0,13,1094,0,
49,381,31,516,2,0,0,0,1,2,5,4,942,0,4,946,0,
50,533,43,504,27,1,0,7,2,3,3,5,1128,0,16,1144,0,
51,255,58,448,44,3,3,6,2,4,5,4,832,0,8,840,0,
52,354,15,321,77,1,0,2,1,2,2,5,780,0,6,786,0,
53,130,11,480,13,1,0,0,0,1,4,2,642,0,11,653,0,
54,221,2,400,4,1,0,0,1,3,3,2,637,0,7,644,0,
55,480,14,447,15,0,1,1,1,1,3,4,967,0,9,976,0,
56,272,12,621,15,4,1,1,1,3,5,2,937,0,13,950,0,
57,276,18,421,4,0,2,1,1,1,2,2,728,0,3,731,0,
58,204,5,253,3,2,1,0,0,1,1,2,472,0,4,476,0,
59,290,13,330,2,1,1,1,0,1,4,1,644,0,0,644,0,
60,759,15,268,7,1,1,0,0,4,0,2,1057,0,4,1061,0,
61,483,24,296,24,1,0,0,0,3,5,1,837,0,9,846,0,
62,257,15,346,5,2,0,3,3,2,3,3,639,0,5,644,0,
63,286,15,510,7,2,1,1,0,0,6,1,829,0,6,835,0,
64,247,6,619,9,0,0,3,1,2,6,3,896,0,5,901,0,
65,275,14,467,7,1,1,6,1,2,6,5,785,0,6,791,0,
66,267,16,332,7,0,1,0,0,1,4,3,631,0,3,634,0,
67,308,16,519,11,1,3,3,1,2,4,0,868,0,7,875,0,
68,301,16,526,6,2,2,2,1,2,13,5,876,0,10,886,0,
69,225,10,294,2,0,0,3,0,0,1,5,540,0,7,547,0,
70,291,10,716,11,5,1,4,1,4,6,4,1053,0,8,1061,0,
71,231,10,495,11,0,0,4,0,1,5,4,761,0,5,766,0,
72,481,32,563,12,0,1,2,0,3,8,2,1104,0,9,1113,0,
73,363,21,459,15,0,1,0,4,4,6,4,877,0,7,884,0,
74,247,4,99,4,0,0,0,0,1,0,0,355,0,5,360,0,
75,454,18,386,2,1,1,6,0,2,1,2,873,0,6,879,0,
76,384,10,591,12,1,3,2,2,3,3,5,1016,0,8,1024,0,
77,806,76,54,30,2,1,1,0,1,1,4,976,0,10,986,0,
78,504,15,184,8,0,0,3,0,0,1,0,715,0,3,718,0,
79,206,11,470,3,1,3,1,2,3,2,4,706,0,3,709,0,
80,398,63,395,25,1,0,0,3,2,2,4,893,0,9,902,0,
81,280,52,262,8,1,0,1,1,3,3,1,612,0,1,613,0,
82,361,39,367,11,1,1,0,0,2,5,6,793,0,5,798,0,
83,88,17,597,12,2,0,1,0,2,3,0,722,0,3,725,0,
84,339,30,316,5,0,0,2,0,3,2,3,700,0,4,704,0,
85,222,13,166,0,0,0,0,0,0,2,1,404,0,2,406,0,
86,317,34,136,3,0,0,0,0,0,3,0,493,0,3,496,0,
87,457,26,32,2,0,1,0,0,2,0,1,521,0,7,528,0,
88,202,13,328,6,0,1,0,2,1,4,0,557,0,8,565,0,
89,218,30,324,4,0,0,0,2,1,1,2,582,0,6,588,0,
90,228,39,427,6,1,0,1,4,0,4,5,715,0,4,719,0,
91,339,34,415,5,2,0,4,1,3,2,3,808,0,2,810,0,
92,322,45,491,3,1,0,1,1,4,1,2,871,0,1,872,0,
93,238,44,710,10,1,1,0,0,3,6,1,1014,0,14,1028,0,
94,201,24,439,4,0,1,0,0,0,3,2,674,0,3,677,0,
95,412,29,528,14,1,0,1,2,3,5,9,1004,0,9,1013,0,
96,492,76,207,29,2,1,1,1,4,1,3,817,0,2,819,0,
97,125,3,344,0,0,0,0,0,1,3,1,477,0,5,482,0,
98,243,17,503,9,3,0,0,0,2,8,5,790,0,6,796,0,
99,289,46,493,10,4,2,0,0,2,6,3,855,0,5,860,0,
100,347,41,594,14,1,2,1,1,4,4,1,1010,0,17,1027,0,
101,559,58,98,30,2,0,1,0,1,3,0,752,0,6,758,0,
102,161,10,382,5,1,0,0,0,0,1,0,560,0,3,563,0,
103,221,15,417,3,1,0,3,1,1,1,0,663,0,1,664,0,
104,358,48,486,26,1,0,0,0,1,2,0,922,0,3,925,0,
105,285,23,450,6,1,0,2,0,1,1,1,770,0,6,776,0,
106,209,32,255,3,0,0,2,0,1,0,0,502,0,2,504,0,
107,606,43,236,23,0,1,1,1,5,6,6,928,0,13,941,0,
108,429,16,369,13,0,3,4,2,5,5,5,851,0,7,858,0,
109,161,16,222,2,2,0,0,2,0,0,1,406,0,4,410,0,
110,270,19,317,3,1,0,0,0,2,2,3,617,0,8,625,0,
111,85,5,631,9,6,1,1,0,2,6,2,748,0,7,755,0,
112,282,21,480,11,4,1,0,3,1,2,4,809,0,8,817,0,
113,226,17,383,10,1,0,2,1,1,4,2,647,0,3,650,0,
114,162,17,336,4,1,0,1,3,0,1,0,525,0,4,529,0,
115,132,24,416,4,0,0,0,0,1,1,1,579,0,4,583,0,
116,193,33,396,2,0,0,0,0,1,5,3,633,0,5,638,0,
117,348,23,383,6,0,1,0,0,0,2,1,764,0,2,766,0,
118,278,54,528,12,1,1,1,1,2,4,3,885,0,10,895,0,
119,209,13,436,4,0,0,0,1,0,4,1,668,0,3,671,0,
120,174,14,348,6,0,0,0,0,2,1,1,546,0,4,550,0,
121,146,8,479,4,0,0,1,1,3,4,0,649,0,6,655,0,
122,208,42,349,7,2,0,2,1,1,6,5,623,0,12,635,0,
123,260,42,661,10,1,3,1,0,4,1,1,984,0,11,995,0,
124,371,25,441,19,1,0,0,0,0,3,2,862,0,7,869,0,
125,293,15,299,5,2,0,0,1,1,5,3,624,0,8,632,0,
126,398,35,201,16,1,0,0,2,1,4,1,659,0,7,666,0,
127,751,175,197,40,2,1,3,0,1,0,1,1171,0,6,1177,0,
128,201,14,523,3,1,1,0,0,0,1,2,746,0,2,748,0,
129,180,22,491,3,0,0,0,1,0,4,5,706,0,5,711,0,
130,210,23,723,10,0,2,3,1,2,10,0,984,0,9,993,0,
131,225,8,333,2,3,0,0,1,4,2,1,579,0,7,586,0,
132,82,8,475,12,0,0,1,1,1,3,0,583,0,3,586,0,
133,231,47,378,21,0,0,2,1,1,5,0,686,0,14,700,0,
134,338,32,197,32,0,1,1,2,1,4,5,613,0,14,627,0,
135,278,59,290,46,0,1,2,0,0,2,5,683,0,12,695,0,
136,186,16,429,9,0,0,1,0,0,2,1,644,0,4,648,0,
137,189,42,514,19,2,1,0,5,2,2,4,780,0,10,790,0,
138,236,57,723,30,1,1,7,3,3,1,2,1064,0,8,1072,0,
139,232,2,211,1,0,1,0,0,0,1,1,449,0,3,452,0,
140,394,20,344,10,1,0,1,1,0,2,2,775,0,6,781,0,
141,79,6,295,8,0,0,0,0,0,0,0,388,0,3,391,0,
142,186,27,307,13,2,0,0,0,1,0,2,538,0,6,544,0,
143,169,23,616,13,1,1,1,0,2,5,1,832,0,8,840,0,
144,214,14,542,20,0,0,3,1,2,3,2,801,0,11,812,0,
145,139,12,295,15,0,0,0,0,2,0,1,464,0,7,471,0,
146,707,43,263,109,5,5,1,0,2,3,4,1142,0,18,1160,0,
147,274,90,580,18,0,0,1,0,0,4,1,968,0,11,979,0,
148,120,18,458,30,1,0,2,0,1,4,0,634,0,3,637,0,
149,103,21,292,19,2,1,1,2,1,1,1,444,0,5,449,0,
150,106,13,528,20,0,0,2,1,0,2,3,675,0,5,680,0,
151,142,23,445,25,1,0,0,1,3,1,3,644,0,7,651,0,
152,167,25,562,26,2,2,13,1,5,3,4,810,0,7,817,0,
153,101,8,366,15,0,3,2,0,1,0,1,497,0,4,501,0,
154,172,18,361,34,0,1,2,0,2,2,3,595,0,6,601,0,
155,148,26,573,52,1,0,5,1,0,8,1,815,0,6,821,0,
156,299,12,636,31,2,0,0,1,5,11,2,999,0,16,1015,0,
157,170,19,391,14,0,0,2,1,1,2,1,601,0,2,603,0,
158,231,19,535,24,1,0,1,2,2,2,1,818,0,3,821,0,
159,461,73,454,57,1,0,4,3,2,1,2,1058,0,2,1060,0,
160,335,32,369,14,2,1,3,0,3,1,3,763,0,5,768,0,
161,217,23,459,22,0,0,4,0,2,0,0,727,0,10,737,0,
162,212,28,431,13,0,1,0,0,1,0,1,687,0,4,691,0,
163,406,27,252,25,0,0,1,0,2,2,0,715,0,7,722,0,
164,617,35,336,89,3,0,3,2,0,1,1,1087,0,8,1095,0,
165,675,13,190,47,0,0,1,1,1,3,1,932,0,10,942,0,
166,426,29,249,30,0,0,4,2,0,0,2,742,0,13,755,0,
167,421,62,40,11,0,0,1,1,0,2,2,540,0,9,549,0,
168,290,52,229,12,0,1,0,0,1,3,2,590,0,7,597,0,
169,238,14,492,13,0,1,0,0,0,1,0,759,0,4,763,0,
170,362,12,430,12,0,0,0,1,0,4,1,822,0,4,826,0,
171,403,42,472,13,2,1,4,1,7,10,7,962,0,21,983,0,
173,484,64,46,16,0,1,0,1,1,1,0,614,0,4,618,0,
174,768,72,162,48,2,1,1,1,2,2,1,1060,0,6,1066,0,
176,283,8,508,4,1,0,0,1,2,3,3,813,0,3,816,0,
177,340,22,385,8,0,2,1,1,1,4,1,765,0,13,778,0,
178,422,35,340,15,1,0,1,1,0,1,2,818,0,5,823,0,
179,512,26,181,27,0,0,2,1,1,4,2,756,0,5,761,0,
180,536,27,30,20,0,0,0,1,0,0,3,617,0,6,623,0,
181,228,22,426,2,1,2,1,0,2,4,1,689,0,10,699,0,
182,324,31,471,9,2,3,3,2,3,5,8,861,0,9,870,0,
183,582,56,501,14,3,1,3,0,3,8,1,1172,0,6,1178,0,
184,228,11,429,10,0,1,1,1,5,11,7,704,0,8,712,0,
185,274,23,429,4,1,1,1,1,2,3,0,739,0,9,748,0,
186,258,23,322,16,0,0,0,0,1,7,1,628,0,9,637,0,
187,378,97,628,13,0,1,1,2,2,8,7,1137,0,16,1153,0,
188,440,164,457,23,0,1,0,1,1,3,6,1096,0,11,1107,0,
189,134,29,500,4,1,0,1,0,1,2,6,678,0,5,683,0,
190,239,61,259,7,0,1,0,1,2,5,2,577,0,10,587,0,
191,350,80,318,3,2,0,1,1,4,10,10,779,0,8,787,0,
192,417,120,287,8,2,2,3,0,1,6,3,849,0,5,854,0,
193,227,33,355,14,0,1,0,0,1,5,2,638,0,8,646,0,
194,262,8,370,5,1,0,0,0,2,4,2,654,0,12,666,0,
195,228,84,767,12,1,3,2,0,3,15,2,1117,0,10,1127,0,
196,165,19,560,12,0,0,3,0,3,7,4,773,0,5,778,0,
197,304,48,356,4,0,1,2,0,2,8,0,725,0,4,729,0,
198,187,49,740,22,0,0,1,1,6,11,3,1020,0,g,1028,0,
199,127,32,505,18,0,1,0,0,2,5,5,695,0,4,699,0,
200,186,43,183,4,0,1,2,0,0,0,2,421,0,7,428,0,
201,292,60,496,19,0,1,0,0,4,5,2,879,0,4,883,0,
202,151,51,681,23,2,0,3,1,5,7,1,925,0,11,936,0,
203,458,87,567,13,0,1,2,0,2,5,8,1143,0,7,1150,0,
204,230,24,639,20,2,0,0,2,2,9,2,930,0,12,942,0,
205,210,33,385,5,1,0,1,2,2,3,2,644,0,4,648,0,
206,228,36,338,8,0,0,0,0,1,2,1,614,0,0,614,0,
207,254,90,328,30,0,0,0,0,3,3,3,711,0,3,714,0,
208,387,18,263,6,0,1,1,0,2,2,7,687,0,8,695,0,
209,303,61,368,14,1,2,2,1,5,3,3,763,0,3,766,0,
210,180,59,549,29,1,0,0,0,1,1,4,824,0,7,831,0,
211,282,29,216,3,1,1,0,2,1,2,4,541,0,4,545,0,
212,459,37,167,14,0,1,0,1,1,1,2,683,0,3,686,0,
213,235,23,613,11,1,0,4,1,3,9,4,904,0,7,911,0,
214,414,23,562,30,0,0,0,0,2,4,4,1039,0,2,1041,0,
215,291,24,522,13,1,1,3,0,0,3,1,859,0,5,864,0,
216,169,71,614,10,1,1,0,0,4,6,1,877,0,5,882,0,
217,117,17,582,7,0,2,0,2,3,3,1,734,0,3,737,0,
218,288,24,387,7,0,0,0,0,2,6,3,717,0,8,725,0,
219,384,17,147,5,0,0,0,0,2,1,4,560,0,8,568,0,
220,282,22,205,6,0,0,0,0,0,1,1,517,0,2,519,0,
221,333,9,358,8,0,0,2,1,3,2,2,718,0,2,720,0,
222,446,15,459,4,1,0,0,0,2,4,0,931,0,8,939,0,
223,497,98,277,20,0,0,1,0,3,6,2,904,0,13,917,0,
224,417,30,574,16,1,1,2,1,3,6,4,1055,0,10,1065,0,
225,459,26,415,5,1,0,0,0,0,2,1,909,0,0,909,0,
226,267,19,422,18,0,0,3,1,0,0,3,733,0,7,740,0,
227,242,34,409,9,1,1,6,0,2,5,3,712,0,5,717,0,
228,290,16,352,8,0,0,1,1,2,4,4,678,0,4,682,0,
229,236,22,478,4,1,1,1,0,0,8,5,756,0,3,759,0,
230,259,15,653,5,1,1,3,0,2,4,4,947,0,6,953,0,
231,193,6,365,1,1,2,1,0,3,7,3,582,0,7,589,0,
232,288,29,711,15,1,1,3,3,8,11,4,1074,0,14,1088,0,
233,368,13,377,12,0,2,1,1,0,6,2,782,0,9,791,0,
234,388,18,384,13,0,1,1,1,2,3,5,816,0,6,822,0,
235,392,36,521,5,0,1,2,2,2,4,2,967,0,10,977,0,
236,594,28,181,1,0,0,1,0,0,2,5,812,0,6,818,0,
237,248,6,375,4,0,0,2,1,3,2,2,643,0,6,649,0,
238,187,5,339,8,0,2,1,0,2,2,2,548,0,4,552,0,
239,219,5,361,6,0,2,0,0,0,1,1,595,0,8,603,0,
240,93,6,628,7,1,2,1,0,0,11,2,751,0,5,756,0,
241,227,12,452,6,2,0,1,1,0,4,0,705,0,6,711,0,
242,407,26,244,12,0,0,2,0,0,5,0,696,0,6,702,0,
243,229,10,486,10,0,0,2,0,4,3,4,748,0,7,755,0,
244,201,13,361,4,1,0,1,1,3,9,2,596,0,7,603,0,
245,574,4,57,1,1,0,0,1,1,0,0,639,0,1,640,0,
246,331,6,613,13,1,1,3,2,3,2,5,980,0,12,992,0,
247,841,11,10,4,0,0,0,0,0,0,1,867,0,2,869,0,
248,636,30,59,7,1,0,0,0,0,1,2,736,0,3,739,0,
249,652,0,1,0,0,0,6,0,0,0,0,659,0,0,659,0,
250,673,36,8,3,0,0,0,1,0,0,1,722,0,1,723,0,
251,470,25,200,4,1,1,1,0,3,2,2,709,0,2,711,0,
252,295,20,180,11,0,0,0,0,3,5,2,516,0,4,520,0,
253,266,28,514,7,0,0,2,1,1,4,3,826,0,5,831,0,
254,307,5,260,4,2,1,0,0,0,0,1,580,0,3,583,0,
255,485,26,462,16,1,0,4,1,5,6,6,1012,0,12,1024,0,
256,760,86,37,7,3,0,1,1,1,1,6,903,0,10,913,0,
257,491,78,108,6,0,0,0,0,0,3,1,687,0,6,693,0,
258,413,30,91,1,0,0,1,0,4,0,1,541,0,6,547,0,
259,474,39,381,4,0,0,1,0,1,1,1,902,0,8,910,0,
260,657,71,129,3,0,0,12,0,0,0,0,872,0,3,875,0,
261,518,60,43,16,0,0,1,0,1,2,3,644,0,10,654,0,
262,362,75,395,8,2,1,3,1,3,4,3,857,0,6,863,0,
263,350,28,266,8,1,0,1,0,1,4,5,664,0,3,667,0,
264,460,93,99,13,0,0,1,1,1,3,1,672,0,7,679,0,
265,463,24,489,9,4,2,0,1,2,3,2,999,0,6,1005,0,
266,141,20,200,7,0,0,0,0,0,1,1,370,0,2,372,0,
267,693,12,16,5,0,0,0,0,0,0,0,726,0,1,727,0,
268,386,70,335,11,5,5,0,0,3,1,4,820,0,4,824,0,
269,678,37,156,14,0,0,0,0,1,1,1,888,0,4,892,0,
270,791,35,316,15,1,0,0,2,1,2,2,1165,0,3,1168,0,
